##TITLE=N-BUTYL BROMIDE
##JCAMP-DX=4.24
##DATA TYPE=INFRARED SPECTRUM
##CLASS=COBLENTZ
##ORIGIN=CONTINENTAL OIL CO. (HAROLD F. SMITH)
##OWNER=COBLENTZ SOCIETY
Collection (C) 2018 copyright by the U.S. Secretary of Commerce
on behalf of the United States of America. All rights reserved.
##DATE=Not specified, most likely prior to 1970
##NAMES=1-bromobutane
##CAS REGISTRY NO=109-65-9
##MOLFORM=C4 H9 Br
##SOURCE REFERENCE=COBLENTZ NO. 3755
##$NIST SOURCE=COBLENTZ
##$NIST IMAGE=cob3755
##SPECTROMETER/DATA SYSTEM=Not specified, most likely a prism, grating, or hybrid spectrometer.
##STATE=LIQUID
##PATH LENGTH=0.0036 CM
##SAMPLING PROCEDURE=TRANSMISSION
##RESOLUTION=4
##DATA PROCESSING=DIGITIZED BY NIST FROM HARD COPY
##XUNITS=MICROMETERS
##YUNITS=TRANSMITTANCE
##XFACTOR=1.000000
##YFACTOR=1
##DELTAX=000.006189
##FIRSTX=12.012
##LASTX=25.9813
##FIRSTY=0.952
##MAXX=25.9813
##MINX=12.012
##MAXY=0.973
##MINY=0.102
##NPOINTS=2258
##XYDATA=(X++(Y..Y))
12.012000 0.9520 0.9520 0.9530 0.9530 0.9550
12.042960 0.9560 0.9580 0.9580 0.9560 0.9580
12.074000 0.9590 0.9590 0.9590 0.9610 0.9610
12.104960 0.9610 0.9580 0.9580 0.9580 0.9590
12.136000 0.9620 0.9650 0.9690 0.9690 0.9690
12.166960 0.9690 0.9690 0.9690 0.9670 0.9690
12.198000 0.9690 0.9690 0.9690 0.9690 0.9690
12.228960 0.9690 0.9700 0.9720 0.9730 0.9720
12.260000 0.9720 0.9700 0.9690 0.9690 0.9690
12.290960 0.9670 0.9670 0.9720 0.9700 0.9650
12.322000 0.9620 0.9590 0.9610 0.9610 0.9590
12.352960 0.9580 0.9530 0.9520 0.9500 0.9520
12.384000 0.9520 0.9520 0.9500 0.9470 0.9450
12.414960 0.9440 0.9410 0.9390 0.9360 0.9310
12.446000 0.9280 0.9270 0.9250 0.9250 0.9270
12.476960 0.9270 0.9300 0.9300 0.9280 0.9190
12.508000 0.9130 0.9050 0.8960 0.8870 0.8770
12.538960 0.8650 0.8540 0.8400 0.8250 0.8090
12.569000 0.7990 0.7890 0.7850 0.7770 0.7650
12.599960 0.7550 0.7440 0.7410 0.7400 0.7370
12.631000 0.7320 0.7310 0.7260 0.7210 0.7200
12.661960 0.7200 0.7210 0.7350 0.7440 0.7490
12.693000 0.7510 0.7540 0.7580 0.7690 0.7750
12.723960 0.7920 0.7970 0.7990 0.7990 0.7990
12.755000 0.8000 0.8020 0.8050 0.8120 0.8140
12.785960 0.8140 0.8160 0.8160 0.8140 0.8120
12.817000 0.8110 0.8080 0.8020 0.7970 0.7890
12.847960 0.7830 0.7770 0.7690 0.7610 0.7540
12.879000 0.7460 0.7400 0.7320 0.7290 0.7270
12.909960 0.7240 0.7230 0.7210 0.7200 0.7210
12.941000 0.7240 0.7270 0.7340 0.7380 0.7400
12.971960 0.7410 0.7440 0.7490 0.7550 0.7650
13.003000 0.7710 0.7770 0.7820 0.7880 0.7910
13.033960 0.7950 0.8000 0.8110 0.8120 0.8170
13.065000 0.8170 0.8140 0.8140 0.8120 0.8120
13.095960 0.8120 0.8120 0.8120 0.8120 0.8120
13.126000 0.8120 0.8110 0.8060 0.8030 0.8020
13.156960 0.8000 0.7970 0.7920 0.7910 0.7890
13.188000 0.7880 0.7850 0.7830 0.7820 0.7800
13.218960 0.7770 0.7690 0.7600 0.7520 0.7510
13.250000 0.7410 0.7320 0.7230 0.7180 0.7120
13.280960 0.7010 0.6870 0.6780 0.6720 0.6630
13.312000 0.6530 0.6410 0.6320 0.6270 0.6160
13.342960 0.6040 0.5900 0.5700 0.5540 0.5450
13.374000 0.5340 0.5220 0.5100 0.4860 0.4570
13.404960 0.4370 0.4200 0.4140 0.3970 0.3840
13.436000 0.3610 0.3410 0.3230 0.3070 0.2930
13.466960 0.2810 0.2680 0.2610 0.2480 0.2340
13.498000 0.2250 0.2070 0.1960 0.1800 0.1630
13.528960 0.1530 0.1460 0.1370 0.1340 0.1320
13.560000 0.1310 0.1290 0.1280 0.1260 0.1250
13.590960 0.1230 0.1250 0.1360 0.1460 0.1530
13.622000 0.1620 0.1710 0.1820 0.1960 0.2050
13.652960 0.2130 0.2210 0.2300 0.2340 0.2450
13.683000 0.2610 0.2720 0.2900 0.3020 0.3150
13.713960 0.3270 0.3380 0.3460 0.3520 0.3630
13.745000 0.3810 0.3950 0.4010 0.4110 0.4210
13.775960 0.4320 0.4420 0.4490 0.4650 0.4820
13.807000 0.4940 0.5050 0.5100 0.5220 0.5390
13.837960 0.5500 0.5650 0.5740 0.5880 0.6010
13.869000 0.6100 0.6180 0.6320 0.6460 0.6580
13.899960 0.6860 0.6900 0.7000 0.7090 0.7140
13.931000 0.7180 0.7200 0.7230 0.7310 0.7410
13.961960 0.7490 0.7520 0.7580 0.7610 0.7690
13.993000 0.7740 0.7800 0.7860 0.7910 0.7910
14.023960 0.7940 0.7970 0.7990 0.8000 0.8030
14.055000 0.8090 0.8110 0.8140 0.8160 0.8170
14.085960 0.8190 0.8200 0.8220 0.8260 0.8290
14.117000 0.8290 0.8310 0.8360 0.8390 0.8390
14.147960 0.8400 0.8420 0.8430 0.8500 0.8510
14.179000 0.8510 0.8500 0.8500 0.8500 0.8500
14.209960 0.8510 0.8510 0.8500 0.8480 0.8500
14.240000 0.8500 0.8500 0.8510 0.8590 0.8600
14.270960 0.8620 0.8620 0.8620 0.8630 0.8650
14.302000 0.8670 0.8700 0.8700 0.8710 0.8710
14.332960 0.8760 0.8790 0.8790 0.8790 0.8800
14.364000 0.8820 0.8820 0.8820 0.8820 0.8820
14.394960 0.8770 0.8770 0.8770 0.8770 0.8770
14.426000 0.8770 0.8800 0.8820 0.8800 0.8800
14.456960 0.8800 0.8800 0.8800 0.8820 0.8820
14.488000 0.8820 0.8790 0.8790 0.8820 0.8850
14.518960 0.8900 0.8880 0.8880 0.8840 0.8800
14.550000 0.8800 0.8790 0.8770 0.8800 0.8820
14.580960 0.8820 0.8840 0.8840 0.8820 0.8770
14.612000 0.8740 0.8730 0.8730 0.8730 0.8730
14.642960 0.8700 0.8700 0.8680 0.8650 0.8650
14.674000 0.8670 0.8670 0.8670 0.8670 0.8670
14.704960 0.8630 0.8630 0.8700 0.8700 0.8700
14.736000 0.8700 0.8700 0.8670 0.8600 0.8590
14.766960 0.8590 0.8560 0.8540 0.8540 0.8530
14.798000 0.8510 0.8500 0.8460 0.8450 0.8430
14.828960 0.8420 0.8420 0.8420 0.8420 0.8420
14.859000 0.8450 0.8450 0.8400 0.8370 0.8370
14.889960 0.8390 0.8390 0.8390 0.8360 0.8330
14.921000 0.8290 0.8290 0.8310 0.8330 0.8330
14.951960 0.8330 0.8330 0.8310 0.8290 0.8230
14.983000 0.8230 0.8220 0.8230 0.8220 0.8200
15.013960 0.8170 0.8140 0.8120 0.8120 0.8120
15.045000 0.8110 0.8090 0.8020 0.7920 0.7800
15.075960 0.7720 0.7660 0.7610 0.7550 0.7520
15.107000 0.7510 0.7490 0.7440 0.7410 0.7310
15.137960 0.7290 0.7240 0.7210 0.7150 0.7100
15.169000 0.7090 0.7030 0.7030 0.7010 0.6970
15.199960 0.6900 0.6810 0.6700 0.6640 0.6590
15.231000 0.6520 0.6420 0.6330 0.6300 0.6210
15.261960 0.6190 0.6100 0.6010 0.5930 0.5840
15.293000 0.5730 0.5700 0.5610 0.5510 0.5300
15.323960 0.5110 0.5030 0.4990 0.4890 0.4820
15.355000 0.4710 0.4620 0.4540 0.4430 0.4350
15.385960 0.4260 0.4150 0.3980 0.3750 0.3580
15.416000 0.3470 0.3380 0.3210 0.3060 0.2990
15.446960 0.2900 0.2840 0.2720 0.2560 0.2360
15.478000 0.2240 0.2210 0.2110 0.2000 0.1960
15.508960 0.1880 0.1790 0.1650 0.1530 0.1430
15.540000 0.1390 0.1290 0.1190 0.1120 0.1110
15.570960 0.1110 0.1090 0.1080 0.1050 0.1050
15.602000 0.1020 0.1020 0.1020 0.1020 0.1020
15.632960 0.1030 0.1030 0.1050 0.1060 0.1080
15.664000 0.1080 0.1090 0.1140 0.1200 0.1280
15.694960 0.1290 0.1310 0.1390 0.1460 0.1490
15.726000 0.1540 0.1590 0.1620 0.1710 0.1820
15.756960 0.1960 0.2000 0.2100 0.2190 0.2280
15.788000 0.2330 0.2470 0.2590 0.2680 0.2840
15.818960 0.3010 0.3160 0.3290 0.3380 0.3460
15.850000 0.3630 0.3720 0.3830 0.3980 0.4040
15.880960 0.4200 0.4290 0.4370 0.4520 0.4590
15.912000 0.4660 0.4860 0.5020 0.5100 0.5190
15.942960 0.5230 0.5360 0.5420 0.5450 0.5510
15.973000 0.5590 0.5620 0.5710 0.5790 0.5900
16.003960 0.5990 0.6100 0.6130 0.6190 0.6240
16.035000 0.6330 0.6350 0.6410 0.6590 0.6690
16.065960 0.6720 0.6780 0.6800 0.6840 0.6890
16.097000 0.6970 0.7040 0.7090 0.7100 0.7150
16.127960 0.7150 0.7180 0.7200 0.7230 0.7290
16.159000 0.7340 0.7400 0.7410 0.7490 0.7520
16.189960 0.7580 0.7600 0.7630 0.7650 0.7680
16.221000 0.7680 0.7690 0.7710 0.7740 0.7780
16.251960 0.7780 0.7820 0.7850 0.7880 0.7890
16.283000 0.7890 0.7880 0.7860 0.7850 0.7890
16.313960 0.7910 0.8000 0.8020 0.8020 0.8050
16.345000 0.8090 0.8110 0.8120 0.8140 0.8160
16.375960 0.8160 0.8170 0.8190 0.8190 0.8200
16.407000 0.8200 0.8220 0.8230 0.8230 0.8230
16.437960 0.8250 0.8250 0.8230 0.8220 0.8220
16.469000 0.8200 0.8200 0.8190 0.8190 0.8190
16.499960 0.8200 0.8220 0.8220 0.8200 0.8190
16.531000 0.8190 0.8190 0.8190 0.8190 0.8170
16.561960 0.8170 0.8200 0.8220 0.8230 0.8250
16.592000 0.8250 0.8280 0.8280 0.8280 0.8260
16.622960 0.8250 0.8230 0.8230 0.8230 0.8230
16.654000 0.8230 0.8230 0.8260 0.8280 0.8280
16.684960 0.8280 0.8280 0.8290 0.8290 0.8290
16.716000 0.8290 0.8290 0.8290 0.8310 0.8310
16.746960 0.8290 0.8290 0.8250 0.8250 0.8290
16.778000 0.8290 0.8330 0.8310 0.8290 0.8290
16.808960 0.8260 0.8260 0.8250 0.8250 0.8230
16.840000 0.8220 0.8200 0.8190 0.8170 0.8160
16.870960 0.8140 0.8060 0.8030 0.8030 0.8030
16.902000 0.8060 0.8060 0.8090 0.8090 0.8090
16.932960 0.8090 0.8090 0.8090 0.8090 0.8090
16.964000 0.8060 0.8000 0.7990 0.7970 0.7970
16.994960 0.7950 0.7910 0.7880 0.7860 0.7830
17.026000 0.7800 0.7770 0.7750 0.7720 0.7710
17.056960 0.7690 0.7690 0.7690 0.7650 0.7610
17.088000 0.7580 0.7570 0.7570 0.7540 0.7540
17.118960 0.7520 0.7520 0.7510 0.7400 0.7380
17.149000 0.7310 0.7290 0.7240 0.7230 0.7200
17.179960 0.7170 0.7170 0.7100 0.7010 0.6980
17.211000 0.6930 0.6920 0.6900 0.6890 0.6830
17.241960 0.6730 0.6640 0.6590 0.6560 0.6530
17.273000 0.6500 0.6410 0.6390 0.6330 0.6300
17.303960 0.6290 0.6210 0.6190 0.6130 0.6120
17.335000 0.6050 0.5990 0.5880 0.5790 0.5650
17.365960 0.5610 0.5540 0.5510 0.5470 0.5390
17.397000 0.5300 0.5230 0.5140 0.5110 0.4930
17.427960 0.4820 0.4760 0.4710 0.4690 0.4590
17.459000 0.4510 0.4420 0.4310 0.4230 0.4110
17.489960 0.3970 0.3830 0.3800 0.3720 0.3640
17.521000 0.3530 0.3440 0.3410 0.3300 0.3230
17.551960 0.3100 0.3020 0.2930 0.2900 0.2890
17.583000 0.2890 0.2790 0.2700 0.2590 0.2510
17.613960 0.2500 0.2440 0.2380 0.2210 0.2110
17.645000 0.2020 0.2000 0.1990 0.1900 0.1900
17.675960 0.1850 0.1830 0.1830 0.1830 0.1830
17.706000 0.1800 0.1790 0.1740 0.1700 0.1700
17.736960 0.1620 0.1600 0.1530 0.1510 0.1460
17.768000 0.1430 0.1430 0.1460 0.1460 0.1510
17.798960 0.1530 0.1510 0.1220 0.1510 0.1510
17.830000 0.1490 0.1490 0.1480 0.1480 0.1490
17.860960 0.1490 0.1510 0.1540 0.1590 0.1600
17.892000 0.1620 0.1630 0.1630 0.1650 0.1650
17.922960 0.1680 0.1740 0.1760 0.1770 0.1800
17.954000 0.1820 0.1830 0.1910 0.2000 0.2040
17.984960 0.2050 0.2140 0.2210 0.2270 0.2330
18.016000 0.2360 0.2390 0.2440 0.2580 0.2610
18.046960 0.2620 0.2700 0.2750 0.2920 0.3020
18.078000 0.3120 0.3300 0.3400 0.3430 0.3520
18.108960 0.3550 0.3720 0.3860 0.3940 0.4040
18.140000 0.4140 0.4210 0.4250 0.4320 0.4400
18.170960 0.4420 0.4540 0.4630 0.4760 0.4910
18.202000 0.4960 0.5000 0.5000 0.5030 0.5100
18.232960 0.5200 0.5250 0.5310 0.5400 0.5510
18.263000 0.5610 0.5700 0.5700 0.5740 0.5810
18.293960 0.5900 0.5900 0.5990 0.6010 0.6050
18.325000 0.6130 0.6160 0.6210 0.6270 0.6300
18.355960 0.6320 0.6410 0.6500 0.6530 0.6590
18.387000 0.6640 0.6700 0.6730 0.6780 0.6830
18.417960 0.6840 0.6840 0.6860 0.6900 0.7000
18.449000 0.7010 0.7040 0.7040 0.7030 0.7040
18.479960 0.7100 0.7200 0.7310 0.7350 0.7350
18.511000 0.7290 0.7290 0.7310 0.7310 0.7320
18.541960 0.7320 0.7350 0.7380 0.7400 0.7410
18.573000 0.7460 0.7510 0.7510 0.7490 0.7480
18.603960 0.7490 0.7490 0.7510 0.7510 0.7540
18.635000 0.7550 0.7570 0.7610 0.7630 0.7650
18.665960 0.7660 0.7660 0.7680 0.7680 0.7690
18.697000 0.7690 0.7710 0.7720 0.7750 0.7800
18.727960 0.7800 0.7820 0.7830 0.7850 0.7860
18.759000 0.7880 0.7890 0.7890 0.7890 0.7910
18.789960 0.7940 0.7970 0.8000 0.8020 0.8050
18.821000 0.8050 0.8050 0.8060 0.8080 0.8020
18.851960 0.8020 0.8020 0.8060 0.8060 0.8090
18.882000 0.8110 0.8120 0.8140 0.8140 0.8160
18.912960 0.8200 0.8230 0.8290 0.8310 0.8360
18.944000 0.8360 0.8330 0.8310 0.8290 0.8290
18.974960 0.8310 0.8330 0.8340 0.8330 0.8340
19.006000 0.8370 0.8390 0.8370 0.8390 0.8400
19.036960 0.8420 0.8420 0.8420 0.8420 0.8420
19.068000 0.8420 0.8420 0.8420 0.8420 0.8430
19.098960 0.8480 0.8420 0.8460 0.8480 0.8480
19.130000 0.8480 0.8500 0.8510 0.8530 0.8510
19.160960 0.8510 0.8500 0.8450 0.8430 0.8420
19.192000 0.8420 0.8420 0.8430 0.8480 0.8510
19.222960 0.8530 0.8530 0.8530 0.8540 0.8530
19.254000 0.8540 0.8560 0.8530 0.8560 0.8560
19.284960 0.8560 0.8560 0.8560 0.8560 0.8570
19.316000 0.8570 0.8590 0.8590 0.8600 0.8620
19.346960 0.8630 0.8650 0.8670 0.8650 0.8650
19.378000 0.8650 0.8650 0.8650 0.8700 0.8710
19.408960 0.8710 0.8710 0.8740 0.8760 0.8740
19.439000 0.8740 0.8740 0.8730 0.8700 0.8700
19.469960 0.8680 0.8680 0.8650 0.8670 0.8700
19.501000 0.8710 0.8730 0.8740 0.8760 0.8770
19.531960 0.8770 0.8770 0.8770 0.8770 0.8770
19.563000 0.8770 0.8790 0.8790 0.8800 0.8800
19.593960 0.8840 0.8840 0.8840 0.8820 0.8840
19.625000 0.8840 0.8840 0.8840 0.8850 0.8840
19.655960 0.8820 0.8820 0.8820 0.8820 0.8820
19.687000 0.8800 0.8790 0.8790 0.8800 0.8820
19.717960 0.8840 0.8850 0.8840 0.8820 0.8820
19.749000 0.8820 0.8820 0.8840 0.8840 0.8840
19.779960 0.8850 0.8870 0.8870 0.8870 0.8880
19.811000 0.8880 0.8850 0.8840 0.8820 0.8840
19.841960 0.8850 0.8850 0.8840 0.8840 0.8840
19.873000 0.8840 0.8820 0.8820 0.8820 0.8800
19.903960 0.8800 0.8800 0.8820 0.8820 0.8870
19.935000 0.8910 0.8940 0.8930 0.8930 0.8930
19.965960 0.8910 0.8910 0.8900 0.8900 0.8900
19.996000 0.8910 0.8910 0.8910 0.8910 0.8900
20.026960 0.8900 0.8840 0.8820 0.8820 0.8820
20.058000 0.8820 0.8840 0.8870 0.8880 0.8900
20.088960 0.8900 0.8900 0.8940 0.8960 0.8970
20.120000 0.9010 0.9010 0.9010 0.8970 0.8960
20.150960 0.8930 0.8910 0.8910 0.8910 0.8910
20.182000 0.8910 0.8960 0.8960 0.8930 0.8910
20.212960 0.8900 0.8900 0.8850 0.8850 0.8900
20.244000 0.8910 0.8960 0.8960 0.8930 0.8940
20.274960 0.8940 0.8940 0.8940 0.8930 0.8930
20.306000 0.8930 0.8910 0.8910 0.8930 0.8910
20.336960 0.8910 0.8900 0.8900 0.8880 0.8900
20.368000 0.8900 0.8910 0.8960 0.8960 0.8930
20.398960 0.8900 0.8910 0.8910 0.8910 0.8940
20.430000 0.9010 0.8940 0.8900 0.8900 0.8880
20.460960 0.8900 0.8880 0.8850 0.8850 0.8850
20.492000 0.8850 0.8850 0.8870 0.8900 0.8910
20.522960 0.8910 0.8930 0.8930 0.8930 0.8930
20.553000 0.8930 0.8930 0.8960 0.8960 0.8910
20.583960 0.8930 0.8930 0.8940 0.8960 0.8960
20.615000 0.8940 0.8960 0.8960 0.8940 0.8940
20.645960 0.8930 0.8930 0.8930 0.8940 0.8960
20.677000 0.8960 0.8960 0.8960 0.8940 0.8930
20.707960 0.8930 0.8910 0.8900 0.8900 0.8900
20.739000 0.8900 0.8900 0.8900 0.8900 0.8900
20.769960 0.8900 0.8910 0.8930 0.8930 0.8880
20.801000 0.8880 0.8910 0.8910 0.8910 0.8910
20.831960 0.8910 0.8910 0.8910 0.8930 0.8940
20.863000 0.8930 0.8910 0.8900 0.8900 0.8880
20.893960 0.8900 0.8900 0.8900 0.8910 0.8910
20.925000 0.8940 0.8930 0.8910 0.8900 0.8900
20.955960 0.8870 0.8850 0.8840 0.8870 0.8900
20.987000 0.8910 0.8910 0.8910 0.8900 0.8870
21.017960 0.8840 0.8840 0.8880 0.8880 0.8850
21.049000 0.8850 0.8840 0.8840 0.8840 0.8840
21.079960 0.8840 0.8840 0.8840 0.8840 0.8850
21.111000 0.8840 0.8800 0.8800 0.8790 0.8800
21.141960 0.8820 0.8820 0.8840 0.8840 0.8820
21.172000 0.8790 0.8770 0.8790 0.8790 0.8770
21.202960 0.8740 0.8730 0.8730 0.8730 0.8730
21.234000 0.8730 0.8740 0.8760 0.8770 0.8770
21.264960 0.8770 0.8770 0.8760 0.8740 0.8730
21.296000 0.8730 0.8710 0.8700 0.8680 0.8670
21.326960 0.8650 0.8630 0.8600 0.8540 0.8510
21.358000 0.8500 0.8500 0.8500 0.8500 0.8510
21.388960 0.8510 0.8510 0.8500 0.8500 0.8450
21.420000 0.8400 0.8400 0.8370 0.8370 0.8340
21.450960 0.8330 0.8330 0.8310 0.8310 0.8290
21.482000 0.8260 0.8250 0.8230 0.8220 0.8200
21.512960 0.8110 0.8060 0.8020 0.8000 0.7920
21.544000 0.7910 0.7890 0.7820 0.7800 0.7720
21.574960 0.7690 0.7650 0.7650 0.7600 0.7600
21.606000 0.7540 0.7540 0.7520 0.7460 0.7400
21.636960 0.7350 0.7320 0.7310 0.7230 0.7150
21.668000 0.7120 0.7100 0.7100 0.7100 0.7100
21.698960 0.7090 0.7070 0.7060 0.7040 0.7040
21.729000 0.7040 0.7030 0.7010 0.7000 0.7000
21.759960 0.6980 0.6980 0.7000 0.7000 0.7030
21.791000 0.7040 0.7040 0.7070 0.7090 0.7120
21.821960 0.7150 0.7180 0.7180 0.7180 0.7200
21.853000 0.7240 0.7270 0.7310 0.7320 0.7340
21.883960 0.7350 0.7350 0.7340 0.7340 0.7340
21.915000 0.7350 0.7370 0.7400 0.7510 0.7580
21.945960 0.7610 0.7630 0.7660 0.7690 0.7710
21.977000 0.7770 0.7830 0.7890 0.7990 0.8000
22.007960 0.8000 0.8020 0.8030 0.8060 0.8110
22.039000 0.8160 0.8190 0.8140 0.8140 0.8140
22.069960 0.8140 0.8170 0.8220 0.8250 0.8250
22.101000 0.8250 0.8220 0.8230 0.8280 0.8290
22.131960 0.8280 0.8290 0.8290 0.8310 0.8340
22.163000 0.8340 0.8340 0.8340 0.8370 0.8400
22.193960 0.8400 0.8420 0.8420 0.8420 0.8430
22.225000 0.8450 0.8450 0.8450 0.8430 0.8420
22.255960 0.8420 0.8420 0.8420 0.8450 0.8460
22.286000 0.8510 0.8530 0.8560 0.8600 0.8620
22.316960 0.8620 0.8590 0.8570 0.8560 0.8540
22.348000 0.8530 0.8530 0.8530 0.8530 0.8540
22.378960 0.8540 0.8570 0.8590 0.8630 0.8700
22.410000 0.8700 0.8650 0.8630 0.8630 0.8650
22.440960 0.8670 0.8680 0.8680 0.8680 0.8680
22.472000 0.8700 0.8710 0.8730 0.8730 0.8730
22.502960 0.8710 0.8710 0.8730 0.8730 0.8730
22.534000 0.8740 0.8770 0.8790 0.8800 0.8800
22.564960 0.8800 0.8790 0.8740 0.8740 0.8730
22.596000 0.8730 0.8740 0.8740 0.8740 0.8760
22.626960 0.8760 0.8790 0.8800 0.8840 0.8850
22.658000 0.8850 0.8850 0.8850 0.8850 0.8870
22.688960 0.8870 0.8880 0.8900 0.8910 0.8930
22.720000 0.8960 0.8960 0.8990 0.8990 0.8940
22.750960 0.8930 0.8930 0.8930 0.8940 0.8960
22.782000 0.8990 0.8990 0.8970 0.8990 0.9010
22.812960 0.9010 0.9020 0.9010 0.9010 0.9010
22.844000 0.9010 0.9020 0.9080 0.9080 0.9020
22.874960 0.9020 0.9020 0.9020 0.9020 0.9020
22.905000 0.9020 0.9020 0.9010 0.8990 0.8990
22.935960 0.8970 0.8970 0.8960 0.8960 0.9010
22.967000 0.9020 0.9020 0.9040 0.9070 0.9070
22.997960 0.9010 0.9010 0.9040 0.9040 0.9040
23.029000 0.9040 0.9020 0.9020 0.9020 0.9040
23.059960 0.9040 0.9040 0.9040 0.9010 0.8990
23.091000 0.8990 0.8990 0.8970 0.8960 0.8960
23.121960 0.8970 0.8990 0.9010 0.9020 0.9020
23.153000 0.9010 0.9010 0.9010 0.9020 0.9020
23.183960 0.9010 0.9010 0.8990 0.8970 0.8990
23.215000 0.8990 0.8990 0.8990 0.8970 0.8970
23.245960 0.8990 0.9010 0.9010 0.9010 0.8990
23.277000 0.8990 0.8970 0.8930 0.8960 0.8970
23.307960 0.8970 0.8990 0.8990 0.9040 0.9040
23.339000 0.9010 0.8990 0.9010 0.9020 0.9040
23.369960 0.9020 0.9020 0.9020 0.9020 0.9020
23.401000 0.9020 0.9020 0.9020 0.9020 0.9020
23.431960 0.9020 0.9010 0.8990 0.8970 0.8990
23.462000 0.8990 0.8990 0.8940 0.8930 0.8910
23.492960 0.8910 0.8910 0.8900 0.8880 0.8870
23.524000 0.8840 0.8800 0.8800 0.8820 0.8820
23.554960 0.8820 0.8850 0.8820 0.8820 0.8840
23.586000 0.8840 0.8840 0.8820 0.8820 0.8820
23.616960 0.8800 0.8790 0.8770 0.8770 0.8770
23.648000 0.8770 0.8770 0.8770 0.8790 0.8770
23.678960 0.8770 0.8770 0.8770 0.8770 0.8770
23.710000 0.8770 0.8770 0.8770 0.8770 0.8760
23.740960 0.8740 0.8730 0.8700 0.8680 0.8680
23.772000 0.8670 0.8650 0.8650 0.8620 0.8590
23.802960 0.8560 0.8540 0.8530 0.8500 0.8500
23.834000 0.8500 0.8480 0.8480 0.8480 0.8460
23.864960 0.8500 0.8500 0.8430 0.8420 0.8420
23.896000 0.8420 0.8420 0.8400 0.8400 0.8390
23.926960 0.8390 0.8390 0.8400 0.8420 0.8430
23.958000 0.8450 0.8500 0.8510 0.8530 0.8530
23.988960 0.8540 0.8540 0.8560 0.8570 0.8590
24.019000 0.8590 0.8600 0.8620 0.8620 0.8630
24.049960 0.8630 0.8620 0.8600 0.8590 0.8590
24.081000 0.8570 0.8590 0.8590 0.8560 0.8560
24.111960 0.8540 0.8540 0.8530 0.8530 0.8530
24.143000 0.8530 0.8530 0.8530 0.8530 0.8530
24.173960 0.8530 0.8540 0.8540 0.8500 0.8500
24.205000 0.8530 0.8530 0.8530 0.8510 0.8510
24.235960 0.8500 0.8500 0.8480 0.8460 0.8450
24.267000 0.8420 0.8420 0.8400 0.8400 0.8390
24.297960 0.8390 0.8390 0.8370 0.8390 0.8390
24.329000 0.8390 0.8370 0.8370 0.8360 0.8340
24.359960 0.8330 0.8310 0.8310 0.8290 0.8290
24.391000 0.8290 0.8260 0.8260 0.8280 0.8280
24.421960 0.8260 0.8260 0.8260 0.8260 0.8260
24.453000 0.8260 0.8260 0.8260 0.8260 0.8230
24.483960 0.8230 0.8220 0.8220 0.8220 0.8200
24.515000 0.8170 0.8160 0.8160 0.8140 0.8140
24.545960 0.8120 0.8140 0.8120 0.8110 0.8110
24.576000 0.8110 0.8120 0.8120 0.8060 0.8030
24.606960 0.8000 0.8000 0.8000 0.8030 0.8030
24.638000 0.8020 0.8020 0.8000 0.8000 0.8000
24.668960 0.8020 0.8030 0.8050 0.8050 0.8050
24.700000 0.8030 0.8030 0.8020 0.8020 0.8020
24.730960 0.8020 0.8000 0.7990 0.7940 0.7920
24.762000 0.7920 0.7920 0.7940 0.7940 0.7910
24.792960 0.7910 0.7890 0.7860 0.7860 0.7850
24.824000 0.7850 0.7850 0.7850 0.7830 0.7850
24.854960 0.7910 0.7910 0.7820 0.7800 0.7780
24.886000 0.7750 0.7720 0.7690 0.7660 0.7650
24.916960 0.7630 0.7630 0.7630 0.7630 0.7600
24.948000 0.7600 0.7580 0.7550 0.7540 0.7510
24.978960 0.7510 0.7490 0.7430 0.7410 0.7410
25.010000 0.7430 0.7430 0.7430 0.7410 0.7400
25.040960 0.7380 0.7370 0.7370 0.7370 0.7350
25.072000 0.7340 0.7340 0.7340 0.7340 0.7340
25.102960 0.7320 0.7310 0.7290 0.7290 0.7290
25.134000 0.7270 0.7260 0.7260 0.7240 0.7230
25.164960 0.7210 0.7210 0.7210 0.7200 0.7200
25.195000 0.7180 0.7170 0.7170 0.7180 0.7180
25.225960 0.7180 0.7180 0.7200 0.7200 0.7200
25.257000 0.7210 0.7240 0.7240 0.7240 0.7260
25.287960 0.7260 0.7260 0.7260 0.7260 0.7240
25.319000 0.7230 0.7210 0.7210 0.7200 0.7210
25.349960 0.7210 0.7230 0.7240 0.7240 0.7230
25.381000 0.7230 0.7230 0.7230 0.7210 0.7210
25.411960 0.7210 0.7200 0.7200 0.7200 0.7200
25.443000 0.7200 0.7210 0.7210 0.7200 0.7200
25.473960 0.7210 0.7240 0.7270 0.7290 0.7290
25.505000 0.7290 0.7290 0.7270 0.7260 0.7240
25.535960 0.7210 0.7200 0.7200 0.7200 0.7180
25.567000 0.7180 0.7170 0.7170 0.7150 0.7150
25.597960 0.7140 0.7140 0.7140 0.7120 0.7120
25.629000 0.7140 0.7150 0.7170 0.7170 0.7170
25.659960 0.7170 0.7170 0.7150 0.7120 0.7100
25.691000 0.7100 0.7100 0.7100 0.7100 0.7100
25.721960 0.7090 0.7090 0.7070 0.7070 0.7090
25.752000 0.7090 0.7090 0.7090 0.7090 0.7090
25.782960 0.7090 0.7070 0.7060 0.7040 0.7010
25.814000 0.7010 0.7010 0.7010 0.7010 0.7000
25.844960 0.7000 0.7000 0.7000 0.6950 0.6950
25.876000 0.6950 0.6930 0.6930 0.6920 0.6930
25.906960 0.6930 0.6930 0.6930 0.6920 0.6920
25.938000 0.6920 0.6900 0.6900 0.6920 0.6920
25.968960 0.6930 0.6920 0.6920
##END=
