##TITLE=1-CHLOROBUTANE
##JCAMP-DX=4.24
##DATA TYPE=INFRARED SPECTRUM
##CLASS=COBLENTZ
##ORIGIN=W.T. BOLLETER
##OWNER=COBLENTZ SOCIETY
Collection (C) 2018 copyright by the U.S. Secretary of Commerce
on behalf of the United States of America. All rights reserved.
##DATE=Not specified, most likely prior to 1970
##CAS REGISTRY NO=109-69-3
##MOLFORM=C4 H9 Cl
##SOURCE REFERENCE=COBLENTZ NO. 4496
##$NIST SOURCE=COBLENTZ
##$NIST IMAGE=cob4496
##SPECTROMETER/DATA SYSTEM=Not specified, most likely a prism, grating, or hybrid spectrometer.
##PATH LENGTH=0.0025 CM
##SAMPLING PROCEDURE=TRANSMISSION
##RESOLUTION=4
##DATA PROCESSING=DIGITIZED BY NIST FROM HARD COPY
##XUNITS=MICROMETERS
##YUNITS=TRANSMITTANCE
##XFACTOR=1.000000
##YFACTOR=1
##DELTAX=000.017557
##FIRSTX=14.527
##LASTX=38.0706
##FIRSTY=0.407
##MAXX=38.0706
##MINX=14.527
##MAXY=0.987
##MINY=0.026
##NPOINTS=1342
##XYDATA=(X++(Y..Y))
14.527000 0.4070 0.4090 0.4130 0.4130 0.4160
14.614849 0.4160 0.4150 0.4130 0.4090 0.4020
14.702000 0.4000 0.3930 0.3890 0.3840 0.3810
14.789849 0.3700 0.3610 0.3480 0.3390 0.3300
14.878000 0.3140 0.3000 0.2800 0.2640 0.2520
14.965849 0.2360 0.2160 0.2030 0.1690 0.1530
15.053000 0.1390 0.1210 0.1010 0.0980 0.0760
15.140849 0.0600 0.0550 0.0460 0.0420 0.0410
15.229000 0.0370 0.0350 0.0320 0.0300 0.0280
15.316849 0.0280 0.0260 0.0260 0.0260 0.0260
15.405000 0.0280 0.0280 0.0300 0.0300 0.0330
15.492849 0.0330 0.0370 0.0410 0.0420 0.0500
15.580000 0.0510 0.0590 0.0690 0.0960 0.1090
15.667849 0.1140 0.1230 0.1460 0.1620 0.1750
15.756000 0.2000 0.2140 0.2370 0.2570 0.2770
15.843849 0.2980 0.3130 0.3540 0.3700 0.3810
15.931000 0.3890 0.4020 0.4180 0.4340 0.4470
16.018849 0.4570 0.4700 0.4790 0.4860 0.4910
16.107000 0.4970 0.5000 0.5020 0.5040 0.5080
16.194849 0.5090 0.5110 0.5150 0.5220 0.5240
16.282000 0.5250 0.5290 0.5330 0.5430 0.5470
16.369849 0.5500 0.5560 0.5650 0.5700 0.5740
16.458000 0.5880 0.5970 0.6040 0.6150 0.6220
16.545849 0.6290 0.6360 0.6470 0.6490 0.6510
16.634000 0.6540 0.6580 0.6630 0.6720 0.6740
16.721849 0.6790 0.6850 0.6970 0.7010 0.7080
16.809000 0.7150 0.7220 0.7350 0.7420 0.7490
16.896849 0.7510 0.7600 0.7670 0.7760 0.7830
16.985000 0.7900 0.7970 0.8030 0.8120 0.8150
17.072849 0.8170 0.8190 0.8240 0.8280 0.8300
17.160000 0.8330 0.8370 0.8400 0.8420 0.8470
17.247849 0.8470 0.8490 0.8510 0.8560 0.8560
17.336000 0.8580 0.8600 0.8600 0.8620 0.8640
17.423849 0.8640 0.8650 0.8670 0.8690 0.8710
17.511000 0.8720 0.8720 0.8740 0.8740 0.8760
17.598849 0.8780 0.8810 0.8810 0.8830 0.8850
17.687000 0.8850 0.8870 0.8890 0.8890 0.8920
17.774849 0.8960 0.8980 0.8990 0.9010 0.9030
17.862000 0.9050 0.9060 0.9060 0.9080 0.9100
17.949849 0.9120 0.9140 0.9150 0.9150 0.9170
18.038000 0.9190 0.9210 0.9210 0.9210 0.9230
18.125849 0.9230 0.9240 0.9240 0.9260 0.9260
18.214000 0.9260 0.9260 0.9260 0.9260 0.9260
18.301849 0.9260 0.9260 0.9260 0.9260 0.9260
18.389000 0.9260 0.9260 0.9260 0.9260 0.9260
18.476849 0.9240 0.9240 0.9240 0.9240 0.9240
18.565000 0.9240 0.9230 0.9210 0.9210 0.9210
18.652849 0.9190 0.9190 0.9170 0.9170 0.9150
18.740000 0.9150 0.9150 0.9140 0.9120 0.9120
18.827849 0.9120 0.9100 0.9100 0.9100 0.9080
18.916000 0.9080 0.9080 0.9080 0.9080 0.9080
19.003849 0.9080 0.9060 0.9060 0.9060 0.9060
19.091000 0.9060 0.9060 0.9080 0.9080 0.9080
19.178849 0.9060 0.9060 0.9060 0.9060 0.9060
19.267000 0.9060 0.9050 0.9050 0.9050 0.9030
19.354849 0.9030 0.9030 0.9010 0.9010 0.9010
19.443000 0.9010 0.9010 0.9010 0.9010 0.8990
19.530849 0.8990 0.8990 0.8990 0.8980 0.8980
19.618000 0.8980 0.8980 0.8960 0.8960 0.8960
19.705849 0.8960 0.8940 0.8940 0.8940 0.8920
19.794000 0.8920 0.8900 0.8900 0.8890 0.8870
19.881849 0.8870 0.8870 0.8850 0.8850 0.8870
19.969000 0.8850 0.8830 0.8810 0.8800 0.8760
20.056849 0.8740 0.8740 0.8720 0.8720 0.8710
20.145000 0.8710 0.8690 0.8670 0.8650 0.8640
20.232849 0.8600 0.8560 0.8530 0.8530 0.8510
20.320000 0.8510 0.8490 0.8470 0.8460 0.8420
20.407849 0.8370 0.8330 0.8300 0.8280 0.8240
20.496000 0.8210 0.8130 0.8080 0.8050 0.8010
20.583849 0.7990 0.7870 0.7830 0.7760 0.7710
20.672000 0.7630 0.7530 0.7490 0.7350 0.7220
20.759849 0.7100 0.6990 0.6790 0.6700 0.6610
20.847000 0.6510 0.6350 0.6220 0.6010 0.5770
20.934849 0.5560 0.5360 0.5130 0.4880 0.4630
21.023000 0.4410 0.4130 0.4000 0.3790 0.3660
21.110849 0.3590 0.3520 0.3430 0.3390 0.3380
21.198000 0.3380 0.3410 0.3520 0.3590 0.3750
21.285849 0.3980 0.4060 0.4220 0.4400 0.4570
21.374000 0.4740 0.4880 0.5020 0.5200 0.5340
21.461849 0.5490 0.5580 0.5720 0.5860 0.5930
21.549000 0.6020 0.6100 0.6150 0.6260 0.6350
21.636849 0.6420 0.6510 0.6520 0.6600 0.6630
21.725000 0.6700 0.6760 0.6810 0.6860 0.6900
21.812849 0.6940 0.7010 0.7010 0.7030 0.7110
21.901000 0.7130 0.7170 0.7200 0.7260 0.7290
21.988849 0.7380 0.7400 0.7400 0.7420 0.7470
22.076000 0.7510 0.7530 0.7530 0.7540 0.7580
22.163849 0.7600 0.7630 0.7690 0.7760 0.7780
22.252000 0.7810 0.7830 0.7850 0.7870 0.7880
22.339849 0.7880 0.7900 0.7940 0.7960 0.7970
22.427000 0.7970 0.7990 0.8010 0.8010 0.8030
22.514849 0.8050 0.8050 0.8050 0.8030 0.8010
22.603000 0.8010 0.8010 0.7990 0.7990 0.7970
22.690849 0.7960 0.7920 0.7900 0.7870 0.7830
22.778000 0.7810 0.7780 0.7760 0.7710 0.7690
22.865849 0.7670 0.7650 0.7630 0.7620 0.7600
22.954000 0.7600 0.7600 0.7620 0.7630 0.7650
23.041849 0.7650 0.7690 0.7720 0.7760 0.7810
23.129000 0.7880 0.7990 0.8010 0.8030 0.8080
23.216849 0.8120 0.8170 0.8210 0.8220 0.8260
23.305000 0.8300 0.8330 0.8370 0.8400 0.8440
23.392849 0.8460 0.8470 0.8490 0.8510 0.8530
23.481000 0.8550 0.8560 0.8580 0.8580 0.8600
23.568849 0.8620 0.8640 0.8650 0.8670 0.8670
23.656000 0.8690 0.8690 0.8710 0.8710 0.8720
23.743849 0.8740 0.8760 0.8760 0.8780 0.8800
23.832000 0.8810 0.8830 0.8830 0.8830 0.8850
23.919849 0.8850 0.8850 0.8870 0.8870 0.8890
24.007000 0.8890 0.8890 0.8890 0.8890 0.8890
24.094849 0.8890 0.8870 0.8850 0.8850 0.8830
24.183000 0.8830 0.8810 0.8800 0.8780 0.8760
24.270849 0.8760 0.8740 0.8710 0.8690 0.8670
24.358000 0.8650 0.8640 0.8600 0.8560 0.8510
24.445849 0.8490 0.8460 0.8420 0.8380 0.8370
24.534000 0.8350 0.8310 0.8260 0.8220 0.8190
24.621849 0.8100 0.8030 0.8010 0.7990 0.7970
24.710000 0.7870 0.7830 0.7790 0.7760 0.7740
24.797849 0.7600 0.7560 0.7540 0.7530 0.7530
24.885000 0.7510 0.7510 0.7510 0.7510 0.7510
24.972849 0.7510 0.7510 0.7510 0.7530 0.7530
25.061000 0.7530 0.7540 0.7540 0.7560 0.7580
25.148849 0.7580 0.7600 0.7620 0.7650 0.7690
25.236000 0.7720 0.7780 0.7850 0.7880 0.7900
25.323849 0.7990 0.8010 0.8030 0.8060 0.8100
25.412000 0.8170 0.8190 0.8220 0.8240 0.8280
25.499849 0.8310 0.8350 0.8370 0.8380 0.8440
25.587000 0.8490 0.8510 0.8510 0.8550 0.8580
25.674849 0.8600 0.8600 0.8620 0.8650 0.8690
25.763000 0.8720 0.8740 0.8760 0.8760 0.8800
25.850849 0.8810 0.8810 0.8810 0.8830 0.8870
25.939000 0.8890 0.8900 0.8920 0.8940 0.8960
26.026849 0.8960 0.8960 0.8960 0.8980 0.8980
26.114000 0.8980 0.8980 0.8990 0.8990 0.8990
26.201849 0.8990 0.9010 0.9010 0.9010 0.9010
26.290000 0.9010 0.9010 0.9010 0.9010 0.9010
26.377849 0.9010 0.9010 0.9010 0.9010 0.9010
26.465000 0.9010 0.9010 0.9010 0.8990 0.8990
26.552849 0.8990 0.8990 0.8990 0.8990 0.8990
26.641000 0.8980 0.8980 0.8960 0.8960 0.8960
26.728849 0.8940 0.8920 0.8920 0.8920 0.8900
26.816000 0.8900 0.8890 0.8890 0.8890 0.8890
26.903849 0.8890 0.8890 0.8890 0.8890 0.8900
26.992000 0.8900 0.8900 0.8900 0.8900 0.8900
27.079849 0.8900 0.8890 0.8890 0.8890 0.8900
27.168000 0.8920 0.8940 0.8940 0.8940 0.8960
27.255849 0.8960 0.8960 0.8980 0.8980 0.8980
27.343000 0.8980 0.8980 0.8990 0.8990 0.9010
27.430849 0.9030 0.9050 0.9060 0.9080 0.9100
27.519000 0.9170 0.9170 0.9190 0.9210 0.9230
27.606849 0.9230 0.9260 0.9260 0.9280 0.9280
27.694000 0.9300 0.9320 0.9330 0.9370 0.9400
27.781849 0.9420 0.9460 0.9480 0.9480 0.9490
27.870000 0.9490 0.9510 0.9510 0.9530 0.9550
27.957849 0.9570 0.9600 0.9640 0.9670 0.9670
28.045000 0.9710 0.9730 0.9730 0.9740 0.9760
28.132849 0.9760 0.9760 0.9780 0.9780 0.9800
28.221000 0.9800 0.9820 0.9820 0.9830 0.9850
28.308849 0.9850 0.9850 0.9850 0.9850 0.9850
28.396000 0.9850 0.9850 0.9850 0.9850 0.9870
28.483849 0.9850 0.9850 0.9830 0.9830 0.9830
28.572000 0.9830 0.9830 0.9830 0.9820 0.9820
28.659849 0.9820 0.9800 0.9800 0.9780 0.9760
28.748000 0.9740 0.9740 0.9730 0.9730 0.9730
28.835849 0.9710 0.9710 0.9710 0.9710 0.9710
28.923000 0.9710 0.9710 0.9710 0.9690 0.9670
29.010849 0.9660 0.9600 0.9570 0.9550 0.9530
29.099000 0.9530 0.9510 0.9490 0.9420 0.9390
29.186849 0.9330 0.9280 0.9230 0.9100 0.9030
29.274000 0.8990 0.8990 0.8980 0.8920 0.8890
29.361849 0.8830 0.8670 0.8620 0.8600 0.8530
29.450000 0.8490 0.8440 0.8370 0.8260 0.8170
29.537849 0.8130 0.8050 0.8010 0.7970 0.7850
29.625000 0.7760 0.7630 0.7560 0.7510 0.7400
29.712849 0.7290 0.7100 0.7010 0.6900 0.6790
29.801000 0.6720 0.6650 0.6520 0.6440 0.6330
29.888849 0.6240 0.6170 0.6100 0.6010 0.5970
29.977000 0.5900 0.5860 0.5810 0.5770 0.5770
30.064849 0.5760 0.5760 0.5740 0.5740 0.5760
30.152000 0.5760 0.5790 0.5860 0.5930 0.5970
30.239849 0.6020 0.6060 0.6100 0.6150 0.6260
30.328000 0.6400 0.6510 0.6520 0.6650 0.6760
30.415849 0.6830 0.6880 0.7010 0.7100 0.7130
30.503000 0.7260 0.7380 0.7470 0.7510 0.7580
30.590849 0.7650 0.7740 0.7780 0.7810 0.7870
30.679000 0.8010 0.8030 0.8120 0.8170 0.8190
30.766849 0.8220 0.8300 0.8330 0.8470 0.8510
30.854000 0.8560 0.8600 0.8620 0.8650 0.8670
30.941849 0.8690 0.8710 0.8740 0.8800 0.8830
31.030000 0.8890 0.8920 0.8920 0.8940 0.8960
31.117849 0.8960 0.8980 0.8980 0.8980 0.8990
31.206000 0.8990 0.8990 0.9010 0.9030 0.9030
31.293849 0.9050 0.9050 0.9050 0.9080 0.9080
31.381000 0.9100 0.9100 0.9120 0.9120 0.9140
31.468849 0.9150 0.9150 0.9150 0.9150 0.9140
31.557000 0.9120 0.9120 0.9140 0.9140 0.9140
31.644849 0.9140 0.9120 0.9100 0.9100 0.9080
31.732000 0.9080 0.9060 0.9050 0.9050 0.9030
31.819849 0.9010 0.8990 0.8980 0.8960 0.8940
31.908000 0.8920 0.8900 0.8890 0.8890 0.8870
31.995849 0.8850 0.8830 0.8800 0.8780 0.8760
32.083000 0.8760 0.8740 0.8720 0.8720 0.8710
32.170849 0.8670 0.8650 0.8580 0.8550 0.8530
32.259000 0.8510 0.8440 0.8400 0.8400 0.8380
32.346849 0.8370 0.8350 0.8310 0.8280 0.8260
32.435000 0.8240 0.8220 0.8210 0.8190 0.8150
32.522849 0.8120 0.8100 0.8060 0.8050 0.8030
32.610000 0.7970 0.7960 0.7920 0.7870 0.7830
32.697849 0.7810 0.7790 0.7780 0.7760 0.7740
32.786000 0.7720 0.7710 0.7690 0.7690 0.7670
32.873849 0.7650 0.7630 0.7620 0.7600 0.7580
32.961000 0.7530 0.7510 0.7470 0.7440 0.7420
33.048849 0.7350 0.7290 0.7240 0.7200 0.7110
33.137000 0.7040 0.7010 0.6990 0.6950 0.6900
33.224849 0.6860 0.6830 0.6810 0.6810 0.6790
33.312000 0.6790 0.6810 0.6830 0.6850 0.6850
33.399849 0.6860 0.6860 0.6860 0.6880 0.6880
33.488000 0.6900 0.6920 0.6950 0.6970 0.7010
33.575849 0.7030 0.7030 0.7060 0.7100 0.7100
33.663000 0.7130 0.7150 0.7200 0.7200 0.7240
33.750849 0.7290 0.7330 0.7370 0.7440 0.7490
33.839000 0.7510 0.7510 0.7600 0.7630 0.7670
33.926849 0.7710 0.7720 0.7780 0.7810 0.7850
34.015000 0.7870 0.7880 0.7900 0.7920 0.7920
34.102849 0.7940 0.7990 0.7990 0.8010 0.8010
34.190000 0.8030 0.8030 0.8050 0.8060 0.8060
34.277849 0.8100 0.8100 0.8130 0.8150 0.8190
34.366000 0.8210 0.8220 0.8220 0.8220 0.8220
34.453849 0.8220 0.8210 0.8210 0.8210 0.8210
34.541000 0.8210 0.8220 0.8220 0.8220 0.8220
34.628849 0.8240 0.8240 0.8240 0.8240 0.8220
34.717000 0.8220 0.8210 0.8190 0.8190 0.8170
34.804849 0.8170 0.8170 0.8170 0.8150 0.8130
34.892000 0.8130 0.8130 0.8150 0.8170 0.8170
34.979849 0.8170 0.8190 0.8190 0.8170 0.8170
35.068000 0.8170 0.8170 0.8170 0.8170 0.8170
35.155849 0.8170 0.8150 0.8150 0.8150 0.8150
35.244000 0.8130 0.8130 0.8130 0.8130 0.8130
35.331849 0.8130 0.8120 0.8120 0.8120 0.8120
35.419000 0.8120 0.8120 0.8120 0.8120 0.8120
35.506849 0.8100 0.8080 0.8060 0.8050 0.8050
35.595000 0.8030 0.8030 0.8030 0.8030 0.8030
35.682849 0.8030 0.8010 0.8010 0.8010 0.7990
35.770000 0.7970 0.7970 0.7960 0.7940 0.7940
35.857849 0.7920 0.7920 0.7900 0.7900 0.7900
35.946000 0.7900 0.7900 0.7900 0.7880 0.7850
36.033849 0.7830 0.7810 0.7810 0.7790 0.7780
36.121000 0.7780 0.7780 0.7740 0.7740 0.7720
36.208849 0.7710 0.7690 0.7670 0.7670 0.7670
36.297000 0.7670 0.7670 0.7670 0.7650 0.7620
36.384849 0.7580 0.7580 0.7580 0.7540 0.7540
36.473000 0.7530 0.7530 0.7530 0.7510 0.7510
36.560849 0.7510 0.7510 0.7510 0.7510 0.7490
36.648000 0.7490 0.7490 0.7490 0.7490 0.7470
36.735849 0.7470 0.7450 0.7440 0.7440 0.7420
36.824000 0.7420 0.7400 0.7400 0.7380 0.7380
36.911849 0.7380 0.7370 0.7370 0.7350 0.7350
36.999000 0.7330 0.7330 0.7310 0.7290 0.7280
37.086849 0.7260 0.7240 0.7220 0.7200 0.7170
37.175000 0.7170 0.7170 0.7170 0.7170 0.7170
37.262849 0.7170 0.7170 0.7170 0.7150 0.7150
37.350000 0.7150 0.7150 0.7130 0.7130 0.7130
37.437849 0.7130 0.7130 0.7110 0.7100 0.7080
37.526000 0.7080 0.7060 0.7040 0.7030 0.7010
37.613849 0.7010 0.6990 0.6970 0.6940 0.6880
37.702000 0.6850 0.6830 0.6830 0.6790 0.6790
37.789849 0.6790 0.6770 0.6770 0.6760 0.6720
37.877000 0.6720 0.6720 0.6700 0.6700 0.6720
37.964849 0.6720 0.6720 0.6720 0.6720 0.6720
38.053000 0.7620 0.6720
##END=
