##TITLE=VINYLACETONITRILE
$$ E.K. NO. 3182
##JCAMP-DX=4.24
##DATA TYPE=INFRARED SPECTRUM
##CLASS=COBLENTZ
##ORIGIN=DOW CHEMICAL COMPANY
##OWNER=COBLENTZ SOCIETY
Collection (C) 2018 copyright by the U.S. Secretary of Commerce
on behalf of the United States of America. All rights reserved.
##DATE=Not specified, most likely prior to 1970
##NAMES=3-butenenitrile
3-CYANOPROPENE
##CAS REGISTRY NO=109-75-1
##MOLFORM=C4 H5 N
##SOURCE REFERENCE=COBLENTZ NO. 1509
##$NIST SOURCE=COBLENTZ
##$NIST IMAGE=cob1509
##SPECTROMETER/DATA SYSTEM=Not specified, most likely a prism, grating, or hybrid spectrometer.
##STATE=SOLUTION (10% CCl4 FOR 5000-1330, 10% CS2 FOR 1330-625 CM^-^1)
##PATH LENGTH=0.0121 CM, 0.0116 CM
$$SPECTRAL CONTAMINATION DUE TO CS2 AROUND 850, AND CCl4 AROUND 1550 CM^-^1
##SAMPLING PROCEDURE=TRANSMISSION
##RESOLUTION=4
##DATA PROCESSING=DIGITIZED BY NIST FROM HARD COPY
##XUNITS=MICROMETERS
##YUNITS=TRANSMITTANCE
##XFACTOR=1.000000
##YFACTOR=1
##DELTAX=000.006843
##FIRSTX=2.014
##LASTX=15.8976
##FIRSTY=0.854
##MAXX=15.8976
##MINX=2.014
##MAXY=0.951
##MINY=0.084
##NPOINTS=2030
##XYDATA=(X++(Y..Y))
2.014000 0.8540 0.8540 0.8540 0.8540 0.8540
2.048230 0.8540 0.8540 0.8540 0.8540 0.8540
2.082000 0.8540 0.8540 0.8540 0.8540 0.8540
2.116230 0.8540 0.8540 0.8540 0.8540 0.8540
2.151000 0.8540 0.8540 0.8520 0.8500 0.8470
2.185230 0.8450 0.8450 0.8430 0.8400 0.8330
2.219000 0.8330 0.8310 0.8330 0.8330 0.8330
2.253230 0.8330 0.8330 0.8310 0.8300 0.8280
2.287000 0.8260 0.8260 0.8260 0.8280 0.8300
2.321230 0.8330 0.8350 0.8380 0.8420 0.8430
2.356000 0.8450 0.8490 0.8490 0.8500 0.8500
2.390230 0.8490 0.8450 0.8450 0.8450 0.8470
2.424000 0.8490 0.8500 0.8520 0.8540 0.8540
2.458230 0.8570 0.8590 0.8590 0.8590 0.8590
2.493000 0.8590 0.8590 0.8590 0.8590 0.8590
2.527230 0.8590 0.8590 0.8590 0.8590 0.8610
2.561000 0.8610 0.8590 0.8590 0.8590 0.8570
2.595230 0.8570 0.8570 0.8590 0.8610 0.8640
2.630000 0.8690 0.8710 0.8730 0.8740 0.8740
2.664230 0.8730 0.8710 0.8690 0.8660 0.8640
2.698000 0.8620 0.8620 0.8620 0.8610 0.8590
2.732230 0.8590 0.8570 0.8550 0.8540 0.8540
2.766000 0.8520 0.8520 0.8500 0.8500 0.8490
2.800230 0.8470 0.8430 0.8380 0.8370 0.8310
2.835000 0.8280 0.8260 0.8250 0.8250 0.8260
2.869230 0.8280 0.8310 0.8310 0.8330 0.8350
2.903000 0.8350 0.8370 0.8370 0.8370 0.8370
2.937230 0.8370 0.8370 0.8370 0.8350 0.8350
2.972000 0.8350 0.8350 0.8350 0.8350 0.8350
3.006230 0.8350 0.8350 0.8350 0.8350 0.8370
3.040000 0.8370 0.8370 0.8380 0.8380 0.8400
3.074230 0.8400 0.8420 0.8420 0.8400 0.8400
3.109000 0.8380 0.8370 0.8330 0.8310 0.8300
3.143230 0.8300 0.8300 0.8300 0.8310 0.8310
3.177000 0.8330 0.8330 0.8310 0.8180 0.8010
3.211230 0.7900 0.7800 0.7700 0.7560 0.7370
3.245000 0.7220 0.7130 0.7110 0.7130 0.7220
3.279230 0.7460 0.7610 0.7700 0.7750 0.7710
3.314000 0.7660 0.7590 0.7580 0.7540 0.7530
3.348230 0.7530 0.7530 0.7530 0.7530 0.7560
3.382000 0.7680 0.7870 0.7940 0.7970 0.7950
3.416230 0.7920 0.7850 0.7800 0.7780 0.7800
3.451000 0.7950 0.8110 0.8330 0.8470 0.8520
3.485230 0.8540 0.8550 0.8570 0.8610 0.8610
3.519000 0.8620 0.8620 0.8610 0.8590 0.8590
3.553230 0.8570 0.8570 0.8610 0.8640 0.8710
3.587000 0.8780 0.8830 0.8860 0.8860 0.8880
3.621230 0.8880 0.8880 0.8860 0.8860 0.8860
3.656000 0.8860 0.8860 0.8860 0.8860 0.8860
3.690230 0.8900 0.8900 0.8910 0.8910 0.8910
3.724000 0.8910 0.8910 0.8910 0.8910 0.8910
3.758230 0.8910 0.8910 0.8910 0.8910 0.8910
3.793000 0.8900 0.8900 0.8880 0.8860 0.8830
3.827230 0.8810 0.8810 0.8810 0.8810 0.8830
3.861000 0.8880 0.8880 0.8900 0.8900 0.8900
3.895230 0.8910 0.8910 0.8910 0.8930 0.8930
3.930000 0.8930 0.8930 0.8930 0.8930 0.8930
3.964230 0.8910 0.8900 0.8900 0.8900 0.8880
3.998000 0.8900 0.8910 0.8930 0.8970 0.8970
4.032230 0.8980 0.8980 0.9000 0.9000 0.9000
4.066000 0.9000 0.9000 0.9000 0.9000 0.9000
4.100230 0.9000 0.9000 0.8980 0.8970 0.8950
4.135000 0.8930 0.8910 0.8910 0.8900 0.8900
4.169230 0.8900 0.8880 0.8860 0.8830 0.8810
4.203000 0.8810 0.8790 0.8780 0.8780 0.8780
4.237230 0.8780 0.8790 0.8790 0.8810 0.8810
4.272000 0.8810 0.8810 0.8810 0.8810 0.8810
4.306230 0.8810 0.8810 0.8810 0.8810 0.8790
4.340000 0.8730 0.8660 0.8550 0.8500 0.8420
4.374230 0.8330 0.8260 0.8060 0.7950 0.7710
4.409000 0.7460 0.7160 0.6920 0.6630 0.6510
4.443230 0.6510 0.6530 0.6820 0.7250 0.7780
4.477000 0.8160 0.8420 0.8550 0.8660 0.8760
4.511230 0.8810 0.8860 0.8880 0.8900 0.8900
4.545000 0.8910 0.8910 0.8910 0.8930 0.8930
4.579230 0.8950 0.8970 0.8980 0.9020 0.9030
4.614000 0.9030 0.9030 0.9020 0.9020 0.9020
4.648230 0.9020 0.9020 0.9020 0.9020 0.9020
4.682000 0.9020 0.9030 0.9030 0.9030 0.9030
4.716230 0.9030 0.9030 0.9050 0.9050 0.9050
4.751000 0.9050 0.9070 0.9070 0.9070 0.9070
4.785230 0.9090 0.9090 0.9090 0.9090 0.9090
4.819000 0.9090 0.9090 0.9090 0.9090 0.9090
4.853230 0.9090 0.9070 0.9070 0.9050 0.9030
4.888000 0.9020 0.9020 0.9020 0.9020 0.9020
4.922230 0.9020 0.9020 0.9020 0.9020 0.9020
4.956000 0.9020 0.9030 0.9030 0.9030 0.9030
4.990230 0.9030 0.9030 0.9030 0.9030 0.9020
5.024000 0.9020 0.9020 0.9000 0.8980 0.8950
5.058230 0.8930 0.8910 0.8860 0.8830 0.8810
5.093000 0.8810 0.8830 0.8830 0.8860 0.8900
5.127230 0.8900 0.8910 0.8930 0.8950 0.9000
5.161000 0.9020 0.9020 0.9030 0.9030 0.9030
5.195230 0.9030 0.9030 0.9020 0.8980 0.8980
5.230000 0.8950 0.8950 0.8930 0.8910 0.8910
5.264230 0.8900 0.8900 0.8880 0.8860 0.8810
5.298000 0.8810 0.8760 0.8730 0.8670 0.8570
5.332230 0.8550 0.8470 0.8380 0.8300 0.8230
5.367000 0.8230 0.8230 0.8230 0.8230 0.8260
5.401230 0.8280 0.8370 0.8400 0.8450 0.8470
5.435000 0.8520 0.8570 0.8640 0.8710 0.8730
5.469230 0.8760 0.8830 0.8880 0.8930 0.9000
5.503000 0.9000 0.9000 0.9000 0.9000 0.9000
5.537230 0.9000 0.9000 0.9000 0.8980 0.8980
5.572000 0.8980 0.8980 0.9000 0.9020 0.9020
5.606230 0.9030 0.9030 0.9030 0.9030 0.9030
5.640000 0.9020 0.9020 0.9000 0.9000 0.9000
5.674230 0.9000 0.9000 0.9020 0.9020 0.9020
5.709000 0.9020 0.9020 0.9000 0.9000 0.8980
5.743230 0.8980 0.8910 0.8930 0.8910 0.8910
5.777000 0.8910 0.8910 0.8910 0.8910 0.8910
5.811230 0.8900 0.8860 0.8860 0.8850 0.8850
5.846000 0.8830 0.8830 0.8810 0.8810 0.8790
5.880230 0.8790 0.8780 0.8760 0.8760 0.8760
5.914000 0.8760 0.8760 0.8790 0.8790 0.8790
5.948230 0.8790 0.8790 0.8790 0.8790 0.8790
5.982000 0.8790 0.8780 0.8780 0.8760 0.8740
6.016230 0.8690 0.8570 0.8470 0.8400 0.8280
6.051000 0.8110 0.7920 0.7700 0.7420 0.7150
6.085230 0.6840 0.6510 0.6220 0.6190 0.6170
6.119000 0.6200 0.6460 0.7030 0.7610 0.7900
6.153230 0.8010 0.8020 0.8020 0.8010 0.8010
6.188000 0.7970 0.7970 0.7940 0.7890 0.7820
6.222230 0.7750 0.7680 0.7610 0.7540 0.7420
6.256000 0.7320 0.7230 0.7080 0.6980 0.6910
6.290230 0.6770 0.6630 0.6560 0.6480 0.6430
6.325000 0.6360 0.6320 0.6310 0.6290 0.6260
6.359230 0.6240 0.6200 0.6150 0.6050 0.6020
6.393000 0.5980 0.5930 0.5830 0.5740 0.5670
6.427230 0.5620 0.5570 0.5540 0.5470 0.5400
6.461000 0.5300 0.5240 0.5210 0.5190 0.5190
6.495230 0.5210 0.5230 0.5300 0.5380 0.5470
6.530000 0.5570 0.5720 0.5840 0.5950 0.5960
6.564230 0.6050 0.6120 0.6170 0.6240 0.6310
6.598000 0.6380 0.6480 0.6580 0.6700 0.6770
6.632230 0.6840 0.6940 0.7040 0.7150 0.7270
6.667000 0.7370 0.7470 0.7560 0.7630 0.7710
6.701230 0.7770 0.7870 0.7920 0.7940 0.8020
6.735000 0.8090 0.8140 0.8160 0.8190 0.8190
6.769230 0.8190 0.8190 0.8210 0.8230 0.8260
6.804000 0.8310 0.8330 0.8330 0.8330 0.8330
6.838230 0.8330 0.8330 0.8310 0.8310 0.8300
6.872000 0.8300 0.8260 0.8250 0.8210 0.8180
6.906230 0.8140 0.8070 0.7990 0.7900 0.7820
6.940000 0.7710 0.7580 0.7440 0.7280 0.7100
6.974230 0.6870 0.6620 0.6320 0.6020 0.5640
7.009000 0.5230 0.4760 0.4270 0.3680 0.3430
7.043230 0.3120 0.2830 0.2570 0.2380 0.2340
7.077000 0.2380 0.2960 0.3490 0.3940 0.4570
7.111230 0.5180 0.5690 0.5980 0.6270 0.6480
7.146000 0.6700 0.6940 0.7160 0.7370 0.7560
7.180230 0.7700 0.7800 0.7830 0.7970 0.8070
7.214000 0.8190 0.8260 0.8330 0.8350 0.8370
7.248230 0.8380 0.8370 0.8380 0.8380 0.8380
7.283000 0.8400 0.8420 0.8430 0.8450 0.8470
7.317230 0.8470 0.8490 0.8490 0.8520 0.8520
7.351000 0.8590 0.8610 0.8640 0.8640 0.8670
7.385230 0.8670 0.8670 0.8670 0.8670 0.8690
7.419000 0.8690 0.8690 0.8690 0.8690 0.8690
7.453230 0.8690 0.8690 0.8690 0.8710 0.8710
7.488000 0.8740 0.8780 0.8780 0.8780 0.8740
7.522230 0.8730 0.8690 0.8660 0.8620 0.8590
7.556000 0.8570 0.8570 0.8550 0.8540 0.8500
7.590230 0.8470 0.8450 0.8420 0.8400 0.8350
7.625000 0.8310 0.8300 0.8260 0.8190 0.8130
7.659230 0.8060 0.8020 0.8010 0.7950 0.7870
7.693000 0.7800 0.7730 0.7710 0.7710 0.7710
7.727230 0.7710 0.7730 0.7730 0.7730 0.7730
7.761000 0.7770 0.7770 0.7780 0.7780 0.7780
7.795230 0.7820 0.7900 0.8020 0.8130 0.8210
7.830000 0.8300 0.8370 0.8420 0.8470 0.8500
7.864230 0.8520 0.8550 0.8570 0.8610 0.8640
7.898000 0.8670 0.8710 0.8740 0.8790 0.8830
7.932230 0.8860 0.8900 0.8970 0.9000 0.9000
7.967000 0.9030 0.9050 0.9050 0.9070 0.9090
8.001230 0.9090 0.9100 0.9120 0.9140 0.9140
8.035000 0.9140 0.9150 0.9150 0.9170 0.9170
8.069230 0.9190 0.9190 0.9190 0.9190 0.9190
8.104000 0.9190 0.9190 0.9190 0.9190 0.9170
8.138230 0.9140 0.9120 0.9090 0.9050 0.9020
8.172000 0.9000 0.9000 0.8980 0.8970 0.8950
8.206230 0.8930 0.8910 0.8900 0.8900 0.8860
8.240000 0.8860 0.8850 0.8850 0.8850 0.8860
8.274230 0.8880 0.8930 0.8980 0.9030 0.9100
8.309000 0.9150 0.9190 0.9240 0.9270 0.9290
8.343230 0.9310 0.9330 0.9330 0.9360 0.9380
8.377000 0.9380 0.9390 0.9410 0.9410 0.9430
8.411230 0.9430 0.9450 0.9450 0.9460 0.9460
8.446000 0.9480 0.9480 0.9480 0.9480 0.9480
8.480230 0.9480 0.9480 0.9500 0.9500 0.9500
8.514000 0.9500 0.9500 0.9500 0.9510 0.9510
8.548230 0.9510 0.9510 0.9510 0.9510 0.9510
8.583000 0.9510 0.9510 0.9510 0.9510 0.9510
8.617230 0.9510 0.9510 0.9510 0.9510 0.9510
8.651000 0.9510 0.9510 0.9510 0.9510 0.9510
8.685230 0.9510 0.9510 0.9500 0.9500 0.9500
8.719000 0.9480 0.9480 0.9480 0.9460 0.9460
8.753230 0.9450 0.9450 0.9430 0.9410 0.9390
8.788000 0.9380 0.9360 0.9340 0.9330 0.9310
8.822230 0.9290 0.9240 0.9220 0.9220 0.9210
8.856000 0.9210 0.9210 0.9190 0.9190 0.9150
8.890230 0.9120 0.9090 0.9050 0.9020 0.9000
8.925000 0.8980 0.8970 0.8950 0.8910 0.8880
8.959230 0.8810 0.8760 0.8730 0.8710 0.8670
8.993000 0.8660 0.8620 0.8590 0.8550 0.8520
9.027230 0.8500 0.8500 0.8500 0.8520 0.8520
9.062000 0.8550 0.8590 0.8610 0.8640 0.8670
9.096230 0.8710 0.8730 0.8740 0.8740 0.8760
9.130000 0.8760 0.8760 0.8760 0.8780 0.8760
9.164230 0.8780 0.8760 0.8760 0.8760 0.8740
9.198000 0.8730 0.8730 0.8710 0.8660 0.8610
9.232230 0.8570 0.8570 0.8550 0.8540 0.8500
9.267000 0.8490 0.8490 0.8470 0.8450 0.8420
9.301230 0.8400 0.8380 0.8350 0.8330 0.8310
9.335000 0.8300 0.8280 0.8280 0.8260 0.8260
9.369230 0.8260 0.8260 0.8260 0.8260 0.8260
9.404000 0.8300 0.8330 0.8370 0.8380 0.8420
9.438230 0.8470 0.8490 0.8540 0.8550 0.8570
9.472000 0.8590 0.8610 0.8640 0.8640 0.8660
9.506230 0.8660 0.8670 0.8670 0.8670 0.8670
9.541000 0.8670 0.8670 0.8670 0.8690 0.8690
9.575230 0.8690 0.8690 0.8690 0.8690 0.8690
9.609000 0.8690 0.8690 0.8690 0.8690 0.8690
9.643230 0.8690 0.8690 0.8690 0.8670 0.8670
9.677000 0.8660 0.8660 0.8640 0.8640 0.8620
9.711230 0.8620 0.8610 0.8590 0.8570 0.8550
9.746000 0.8520 0.8520 0.8500 0.8500 0.8470
9.780230 0.8470 0.8450 0.8450 0.8430 0.8400
9.814000 0.8380 0.8380 0.8350 0.8330 0.8300
9.848230 0.8280 0.8260 0.8250 0.8210 0.8190
9.883000 0.8160 0.8130 0.8090 0.8090 0.8060
9.917230 0.8020 0.8010 0.7900 0.7850 0.7800
9.951000 0.7730 0.7650 0.7560 0.7470 0.7370
9.985230 0.7280 0.7200 0.7110 0.6960 0.6800
10.020000 0.6630 0.6480 0.6310 0.6120 0.5950
10.054230 0.5760 0.5570 0.5360 0.5140 0.4930
10.088000 0.4690 0.4450 0.4200 0.3920 0.3630
10.122230 0.3320 0.3120 0.2880 0.2620 0.2380
10.156000 0.2160 0.1950 0.1800 0.1690 0.1640
10.190230 0.1570 0.1560 0.1500 0.1560 0.1730
10.225000 0.1860 0.2000 0.2240 0.2590 0.2960
10.259230 0.3360 0.3770 0.4130 0.4420 0.4630
10.293000 0.4830 0.5000 0.5190 0.5360 0.5540
10.327230 0.5690 0.5830 0.5960 0.6070 0.6170
10.362000 0.6260 0.6320 0.6360 0.6380 0.6410
10.396230 0.6410 0.6430 0.6430 0.6430 0.6390
10.430000 0.6320 0.6290 0.6270 0.6260 0.6240
10.464230 0.6190 0.6050 0.5980 0.5930 0.5880
10.499000 0.5830 0.5780 0.5720 0.5690 0.5640
10.533230 0.5570 0.5520 0.5430 0.5360 0.5260
10.567000 0.5140 0.5000 0.4850 0.4680 0.4470
10.601230 0.4420 0.4150 0.3960 0.3750 0.3560
10.635000 0.3360 0.3170 0.2960 0.2790 0.2600
10.669230 0.2410 0.2240 0.2090 0.1930 0.1780
10.704000 0.1640 0.1500 0.1380 0.1260 0.1160
10.738230 0.1110 0.1060 0.1010 0.0960 0.0940
10.772000 0.0900 0.0890 0.0870 0.0870 0.0850
10.806230 0.0850 0.0840 0.0850 0.0850 0.0870
10.841000 0.0870 0.0890 0.0900 0.0960 0.0990
10.875230 0.1040 0.1060 0.1110 0.1210 0.1370
10.909000 0.1540 0.1760 0.1980 0.2240 0.2500
10.943230 0.2770 0.3050 0.3320 0.3580 0.3820
10.978000 0.4040 0.4230 0.4400 0.4520 0.4610
11.012230 0.4630 0.4690 0.4830 0.4870 0.4900
11.046000 0.4900 0.4920 0.4950 0.4990 0.5000
11.080230 0.5040 0.5120 0.5260 0.5380 0.5520
11.114000 0.5690 0.5860 0.6030 0.6190 0.6320
11.148230 0.6460 0.6580 0.6680 0.6800 0.6910
11.183000 0.7010 0.7100 0.7180 0.7270 0.7340
11.217230 0.7420 0.7470 0.7490 0.7540 0.7560
11.251000 0.7580 0.7610 0.7610 0.7630 0.7650
11.285230 0.7650 0.7660 0.7660 0.7660 0.7660
11.320000 0.7660 0.7660 0.7660 0.7660 0.7660
11.354230 0.7660 0.7660 0.7660 0.7660 0.7660
11.388000 0.7660 0.7660 0.7660 0.7660 0.7660
11.422230 0.7660 0.7660 0.7660 0.7660 0.7660
11.457000 0.7660 0.7660 0.7650 0.7650 0.7630
11.491230 0.7630 0.7610 0.7610 0.7590 0.7560
11.525000 0.7540 0.7510 0.7460 0.7440 0.7420
11.559230 0.7400 0.7390 0.7370 0.7350 0.7350
11.593000 0.7340 0.7350 0.7350 0.7350 0.7350
11.627230 0.7350 0.7370 0.7370 0.7370 0.7390
11.662000 0.7390 0.7400 0.7400 0.7400 0.7420
11.696230 0.7440 0.7460 0.7470 0.7470 0.7490
11.730000 0.7530 0.7560 0.7560 0.7590 0.7590
11.764230 0.7610 0.7660 0.7710 0.7750 0.7820
11.799000 0.7870 0.7950 0.8020 0.8090 0.8180
11.833230 0.8250 0.8310 0.8370 0.8420 0.8450
11.867000 0.8470 0.8470 0.8540 0.8550 0.8640
11.901230 0.8670 0.8710 0.8730 0.8760 0.8790
11.935000 0.8830 0.8910 0.8930 0.8950 0.8970
11.969230 0.9000 0.9030 0.9050 0.9090 0.9100
12.004000 0.9140 0.9150 0.9170 0.9170 0.9190
12.038230 0.9210 0.9210 0.9220 0.9220 0.9240
12.072000 0.9240 0.9260 0.9260 0.9260 0.9270
12.106230 0.9270 0.9290 0.9290 0.9290 0.9310
12.141000 0.9310 0.9310 0.9330 0.9330 0.9330
12.175230 0.9330 0.9330 0.9330 0.9340 0.9340
12.209000 0.9340 0.9340 0.9340 0.9340 0.9340
12.243230 0.9340 0.9340 0.9340 0.9340 0.9340
12.278000 0.9340 0.9340 0.9340 0.9340 0.9340
12.312230 0.9340 0.9340 0.9340 0.9340 0.9340
12.346000 0.9330 0.9330 0.9330 0.9330 0.9310
12.380230 0.9310 0.9290 0.9310 0.9310 0.9310
12.414000 0.9290 0.9290 0.9290 0.9290 0.9270
12.448230 0.9270 0.9270 0.9270 0.9260 0.9260
12.483000 0.9260 0.9260 0.9260 0.9220 0.9220
12.517230 0.9220 0.9220 0.9210 0.9210 0.9210
12.551000 0.9210 0.9210 0.9210 0.9210 0.9190
12.585230 0.9190 0.9190 0.9190 0.9190 0.9190
12.620000 0.9190 0.9170 0.9170 0.9170 0.9150
12.654230 0.9150 0.9140 0.9140 0.9120 0.9120
12.688000 0.9120 0.9120 0.9120 0.9120 0.9120
12.722230 0.9100 0.9100 0.9100 0.9100 0.9100
12.757000 0.9120 0.9120 0.9120 0.9120 0.9140
12.791230 0.9140 0.9140 0.9140 0.9140 0.9150
12.825000 0.9150 0.9170 0.9150 0.9170 0.9170
12.859230 0.9170 0.9170 0.9170 0.9150 0.9170
12.893000 0.9170 0.9170 0.9170 0.9170 0.9170
12.927230 0.9150 0.9150 0.9150 0.9150 0.9150
12.962000 0.9150 0.9150 0.9150 0.9150 0.9150
12.996230 0.9150 0.9120 0.9120 0.9100 0.9100
13.030000 0.9100 0.9100 0.9090 0.9090 0.9070
13.064230 0.9050 0.9050 0.9050 0.9050 0.9050
13.099000 0.9050 0.9050 0.9050 0.9050 0.9050
13.133230 0.9050 0.9050 0.9030 0.9030 0.9020
13.167000 0.9020 0.9020 0.8980 0.9000 0.8980
13.201230 0.8950 0.8950 0.8910 0.8910 0.8900
13.236000 0.8900 0.8880 0.8900 0.8900 0.8900
13.270230 0.8900 0.8900 0.8900 0.8900 0.8900
13.304000 0.8880 0.8880 0.8880 0.8880 0.8880
13.338230 0.8860 0.8860 0.8860 0.8850 0.8850
13.372000 0.8830 0.8830 0.8830 0.8810 0.8790
13.406230 0.8780 0.8760 0.8740 0.8730 0.8730
13.441000 0.8710 0.8690 0.8690 0.8670 0.8670
13.475230 0.8660 0.8660 0.8660 0.8660 0.8640
13.509000 0.8620 0.8620 0.8610 0.8590 0.8590
13.543230 0.8570 0.8550 0.8540 0.8520 0.8500
13.578000 0.8490 0.8470 0.8450 0.8430 0.8420
13.612230 0.8420 0.8400 0.8380 0.8370 0.8350
13.646000 0.8330 0.8310 0.8310 0.8300 0.8280
13.680230 0.8260 0.8250 0.8230 0.8210 0.8190
13.715000 0.8180 0.8160 0.8130 0.8110 0.8090
13.749230 0.8070 0.8060 0.8020 0.8010 0.7990
13.783000 0.7970 0.7950 0.7940 0.7920 0.7900
13.817230 0.7890 0.7870 0.7830 0.7820 0.7800
13.851000 0.7770 0.7770 0.7750 0.7730 0.7730
13.885230 0.7710 0.7700 0.7680 0.7680 0.7680
13.920000 0.7660 0.7660 0.7660 0.7650 0.7650
13.954230 0.7630 0.7630 0.7630 0.7610 0.7610
13.988000 0.7610 0.7590 0.7590 0.7590 0.7580
14.022230 0.7580 0.7580 0.7580 0.7560 0.7560
14.057000 0.7560 0.7560 0.7560 0.7540 0.7540
14.091230 0.7540 0.7540 0.7530 0.7530 0.7530
14.125000 0.7530 0.7530 0.7530 0.7530 0.7530
14.159230 0.7530 0.7510 0.7510 0.7510 0.7490
14.194000 0.7490 0.7490 0.7470 0.7470 0.7460
14.228230 0.7460 0.7440 0.7440 0.7420 0.7400
14.262000 0.7390 0.7390 0.7370 0.7370 0.7350
14.296230 0.7350 0.7340 0.7340 0.7320 0.7320
14.330000 0.7300 0.7300 0.7280 0.7280 0.7270
14.364230 0.7270 0.7250 0.7250 0.7230 0.7230
14.399000 0.7220 0.7220 0.7200 0.7180 0.7180
14.433230 0.7180 0.7160 0.7160 0.7150 0.7150
14.467000 0.7110 0.7110 0.7100 0.7100 0.7080
14.501230 0.7080 0.7060 0.7040 0.7040 0.7030
14.536000 0.7030 0.7010 0.7010 0.6990 0.6980
14.570230 0.6980 0.6960 0.6920 0.6920 0.6910
14.604000 0.6890 0.6870 0.6870 0.6860 0.6840
14.638230 0.6840 0.6820 0.6800 0.6790 0.6790
14.673000 0.6770 0.6750 0.6740 0.6720 0.6720
14.707230 0.6720 0.6700 0.6670 0.6650 0.6650
14.741000 0.6630 0.6620 0.6600 0.6600 0.6580
14.775230 0.6560 0.6550 0.6530 0.6510 0.6500
14.809000 0.6480 0.6460 0.6440 0.6440 0.6430
14.843230 0.6410 0.6390 0.6390 0.6390 0.6380
14.878000 0.6360 0.6320 0.6310 0.6310 0.6270
14.912230 0.6270 0.6260 0.6240 0.6220 0.6200
14.946000 0.6200 0.6190 0.6190 0.6170 0.6150
14.980230 0.6140 0.6120 0.6120 0.6100 0.6100
15.015000 0.6100 0.6080 0.6070 0.6050 0.6030
15.049230 0.6020 0.5980 0.5960 0.5910 0.5860
15.083000 0.5830 0.5810 0.5780 0.5780 0.5740
15.117230 0.5720 0.5720 0.5690 0.5690 0.5670
15.152000 0.5660 0.5620 0.5620 0.5600 0.5590
15.186230 0.5570 0.5540 0.5520 0.5500 0.5480
15.220000 0.5480 0.5420 0.5400 0.5350 0.5310
15.254230 0.5310 0.5300 0.5300 0.5260 0.5240
15.288000 0.5230 0.5210 0.5210 0.5190 0.5190
15.322230 0.5180 0.5180 0.5160 0.5160 0.5140
15.357000 0.5120 0.5110 0.5090 0.5070 0.5060
15.391230 0.5040 0.5020 0.5020 0.5000 0.5000
15.425000 0.5000 0.4990 0.4950 0.4950 0.4930
15.459230 0.4930 0.4920 0.4920 0.4880 0.4870
15.494000 0.4870 0.4830 0.4830 0.4810 0.4810
15.528230 0.4800 0.4800 0.4780 0.4760 0.4760
15.562000 0.4730 0.4730 0.4710 0.4690 0.4680
15.596230 0.4660 0.4660 0.4660 0.4660 0.4640
15.630000 0.4640 0.4640 0.4630 0.4640 0.4630
15.664230 0.4630 0.4610 0.4590 0.4590 0.4570
15.699000 0.4570 0.4570 0.4560 0.4560 0.4540
15.733230 0.4540 0.4540 0.4540 0.4540 0.4510
15.767000 0.4510 0.4510 0.4490 0.4490 0.4470
15.801230 0.4470 0.4450 0.4450 0.4440 0.4440
15.836000 0.4420 0.4420 0.4420 0.4420 0.4420
15.870230 0.4400 0.4400 0.4400 0.4400 0.4390
##END=
