##TITLE=N-AMYL BROMIDE
##JCAMP-DX=4.24
##DATA TYPE=INFRARED SPECTRUM
##CLASS=COBLENTZ
##ORIGIN=CONTINENTAL OIL CO. (HAROLD F. SMITH)
##OWNER=COBLENTZ SOCIETY
Collection (C) 2018 copyright by the U.S. Secretary of Commerce
on behalf of the United States of America. All rights reserved.
##DATE=Not specified, most likely prior to 1970
##NAMES=1-bromopentane
##CAS REGISTRY NO=110-53-2
##MOLFORM=C5 H11 Br
##SOURCE REFERENCE=COBLENTZ NO. 3754
##$NIST SOURCE=COBLENTZ
##$NIST IMAGE=cob3754
##SPECTROMETER/DATA SYSTEM=Not specified, most likely a prism, grating, or hybrid spectrometer.
##STATE=LIQUID
##PATH LENGTH=0.0036 CM
##SAMPLING PROCEDURE=TRANSMISSION
##RESOLUTION=4
##DATA PROCESSING=DIGITIZED BY NIST FROM HARD COPY
##XUNITS=MICROMETERS
##YUNITS=TRANSMITTANCE
##XFACTOR=1.000000
##YFACTOR=1
##DELTAX=000.006184
##FIRSTX=12.031
##LASTX=25.9935
##FIRSTY=0.828
##MAXX=25.9935
##MINX=12.031
##MAXY=0.897
##MINY=0.117
##NPOINTS=2259
##XYDATA=(X++(Y..Y))
12.031000 0.8280 0.8260 0.8230 0.8230 0.8230
12.061932 0.8250 0.8250 0.8280 0.8290 0.8280
12.093000 0.8210 0.8200 0.8170 0.8150 0.8150
12.123932 0.8120 0.8110 0.8080 0.7970 0.7890
12.155000 0.7730 0.7640 0.7550 0.7440 0.7390
12.185932 0.7350 0.7320 0.7300 0.7300 0.7320
12.216000 0.7330 0.7380 0.7430 0.7460 0.7530
12.246932 0.7600 0.7670 0.7750 0.7830 0.7920
12.278000 0.8000 0.8110 0.8200 0.8290 0.8340
12.308932 0.8420 0.8430 0.8450 0.8510 0.8520
12.340000 0.8540 0.8520 0.8460 0.8450 0.8460
12.370932 0.8480 0.8490 0.8490 0.8490 0.8510
12.402000 0.8570 0.8620 0.8630 0.8650 0.8650
12.432932 0.8660 0.8660 0.8680 0.8680 0.8690
12.464000 0.8730 0.8760 0.8770 0.8800 0.8820
12.494932 0.8820 0.8830 0.8830 0.8830 0.8830
12.526000 0.8850 0.8850 0.8880 0.8910 0.8930
12.556932 0.8940 0.8940 0.8940 0.8960 0.8960
12.587000 0.8940 0.8940 0.8910 0.8910 0.8900
12.617932 0.8880 0.8860 0.8830 0.8830 0.8820
12.649000 0.8820 0.8820 0.8820 0.8800 0.8800
12.679932 0.8790 0.8770 0.8760 0.8710 0.8690
12.711000 0.8660 0.8620 0.8540 0.8520 0.8480
12.741932 0.8430 0.8370 0.8290 0.8250 0.8170
12.773000 0.8110 0.8030 0.7980 0.7860 0.7720
12.803932 0.7550 0.7440 0.7350 0.7260 0.7190
12.835000 0.7080 0.7040 0.6980 0.6960 0.6960
12.865932 0.6980 0.7040 0.7120 0.7220 0.7320
12.897000 0.7380 0.7410 0.7470 0.7530 0.7610
12.927932 0.7670 0.7700 0.7730 0.7770 0.7830
12.958000 0.7870 0.7910 0.7940 0.7970 0.7970
12.988932 0.7980 0.7980 0.7970 0.7970 0.7950
13.020000 0.7950 0.7950 0.7940 0.7920 0.7890
13.050932 0.7830 0.7780 0.7720 0.7690 0.7670
13.082000 0.7670 0.7690 0.7700 0.7700 0.7700
13.112932 0.7700 0.7700 0.7700 0.7720 0.7720
13.144000 0.7700 0.7660 0.7630 0.7640 0.7690
13.174932 0.7770 0.7770 0.7780 0.7780 0.7770
13.206000 0.7770 0.7730 0.7720 0.7700 0.7690
13.236932 0.7670 0.7660 0.7660 0.7630 0.7610
13.268000 0.7610 0.7560 0.7550 0.7530 0.7520
13.298932 0.7490 0.7470 0.7410 0.7350 0.7320
13.330000 0.7290 0.7290 0.7210 0.7160 0.7150
13.360932 0.7150 0.7130 0.7100 0.7080 0.7040
13.391000 0.6980 0.6900 0.6820 0.6730 0.6640
13.421932 0.6560 0.6470 0.6390 0.6280 0.6170
13.453000 0.6050 0.5950 0.5860 0.5740 0.5630
13.483932 0.5490 0.5350 0.5240 0.5130 0.5010
13.515000 0.4950 0.4840 0.4760 0.4750 0.4780
13.545932 0.4780 0.4780 0.4760 0.4720 0.4700
13.577000 0.4700 0.4690 0.4650 0.4590 0.4520
13.607932 0.4420 0.4410 0.4390 0.4380 0.4330
13.639000 0.4300 0.4210 0.4140 0.4050 0.3990
13.669932 0.3850 0.3710 0.3600 0.3480 0.3420
13.701000 0.3340 0.3180 0.3040 0.2940 0.2770
13.731932 0.2630 0.2530 0.2390 0.2380 0.2320
13.762000 0.2290 0.2240 0.2180 0.2150 0.1990
13.792932 0.1980 0.1990 0.2180 0.2220 0.2290
13.824000 0.2390 0.2500 0.2630 0.2750 0.2890
13.854932 0.3030 0.3140 0.3280 0.3450 0.3660
13.886000 0.3850 0.4050 0.4170 0.4300 0.4450
13.916932 0.4610 0.4900 0.5060 0.5230 0.5400
13.948000 0.5570 0.5740 0.5910 0.6030 0.6160
13.978932 0.6230 0.6260 0.6530 0.6700 0.6840
14.010000 0.6910 0.7010 0.7080 0.7160 0.7260
14.040932 0.7320 0.7390 0.7410 0.7440 0.7470
14.072000 0.7520 0.7560 0.7640 0.7690 0.7750
14.102932 0.7890 0.7940 0.7970 0.7980 0.7980
14.133000 0.8000 0.8030 0.8040 0.8080 0.8090
14.163932 0.8110 0.8170 0.8180 0.8200 0.8230
14.195000 0.8280 0.8290 0.8310 0.8310 0.8370
14.225932 0.8390 0.8420 0.8430 0.8460 0.8480
14.257000 0.8480 0.8520 0.8520 0.8510 0.8480
14.287932 0.8420 0.8420 0.8480 0.8510 0.8520
14.319000 0.8570 0.8570 0.8620 0.8660 0.8690
14.349932 0.8690 0.8690 0.8710 0.8770 0.8820
14.381000 0.8830 0.8850 0.8880 0.8820 0.8790
14.411932 0.8770 0.8760 0.8760 0.8770 0.8790
14.443000 0.8800 0.8820 0.8820 0.8820 0.8820
14.473932 0.8800 0.8880 0.8880 0.8860 0.8820
14.504000 0.8790 0.8760 0.8770 0.8820 0.8800
14.534932 0.8790 0.8710 0.8740 0.8770 0.8820
14.566000 0.8820 0.8800 0.8800 0.8800 0.8820
14.596932 0.8820 0.8770 0.8770 0.8790 0.8800
14.628000 0.8820 0.8830 0.8820 0.8800 0.8800
14.658932 0.8790 0.8770 0.8760 0.8770 0.8770
14.690000 0.8770 0.8760 0.8710 0.8710 0.8770
14.720932 0.8800 0.8820 0.8800 0.8790 0.8760
14.752000 0.8730 0.8730 0.8710 0.8690 0.8710
14.782932 0.8710 0.8710 0.8710 0.8690 0.8660
14.814000 0.8650 0.8620 0.8650 0.8630 0.8620
14.844932 0.8600 0.8570 0.8620 0.8590 0.8570
14.875000 0.8560 0.8510 0.8540 0.8570 0.8540
14.905932 0.8520 0.8490 0.8480 0.8420 0.8400
14.937000 0.8400 0.8390 0.8320 0.8310 0.8320
14.967932 0.8280 0.8250 0.8250 0.8230 0.8230
14.999000 0.8210 0.8180 0.8180 0.8170 0.8150
15.029932 0.8110 0.8080 0.8030 0.8010 0.7980
15.061000 0.7920 0.7920 0.7910 0.7890 0.7870
15.091932 0.7780 0.7770 0.7720 0.7670 0.7630
15.123000 0.7550 0.7490 0.7470 0.7430 0.7410
15.153932 0.7330 0.7290 0.7270 0.7220 0.7210
15.185000 0.7190 0.7130 0.7080 0.7050 0.7040
15.215932 0.7010 0.6930 0.6880 0.6810 0.6780
15.246000 0.6700 0.6640 0.6570 0.6510 0.6500
15.276932 0.6400 0.6300 0.6190 0.6050 0.6000
15.308000 0.5850 0.5690 0.5600 0.5490 0.5400
15.338932 0.5290 0.5150 0.5010 0.4860 0.4750
15.370000 0.4690 0.4620 0.4550 0.4410 0.4250
15.400932 0.4050 0.3960 0.3850 0.3770 0.3680
15.432000 0.3560 0.3400 0.3280 0.3150 0.3080
15.462932 0.2920 0.2800 0.2700 0.2600 0.2490
15.494000 0.2330 0.2220 0.2180 0.2080 0.2010
15.524932 0.1980 0.1850 0.1780 0.1710 0.1680
15.556000 0.1640 0.1570 0.1530 0.1500 0.1430
15.586932 0.1370 0.1360 0.1300 0.1300 0.1280
15.617000 0.1280 0.1280 0.1260 0.1230 0.1200
15.647932 0.1170 0.1170 0.1230 0.1280 0.1330
15.679000 0.1340 0.1310 0.1360 0.1470 0.1510
15.709932 0.1590 0.1620 0.1650 0.1680 0.1730
15.741000 0.1790 0.1820 0.1990 0.2020 0.2100
15.771932 0.2210 0.2380 0.2470 0.2580 0.2690
15.803000 0.2840 0.3000 0.3090 0.3210 0.3350
15.833932 0.3650 0.3820 0.3910 0.4050 0.4210
15.865000 0.4330 0.4450 0.4590 0.4720 0.4860
15.895932 0.4900 0.5000 0.5100 0.5290 0.5440
15.927000 0.5570 0.5660 0.5750 0.5820 0.5850
15.957932 0.5910 0.5990 0.6050 0.6190 0.6300
15.989000 0.6370 0.6450 0.6510 0.6560 0.6620
16.019932 0.6650 0.6700 0.6740 0.6790 0.6820
16.050000 0.6880 0.6930 0.6990 0.7070 0.7150
16.080932 0.7210 0.7260 0.7290 0.7300 0.7330
16.112000 0.7330 0.7350 0.7350 0.7360 0.7380
16.142932 0.7410 0.7440 0.7500 0.7530 0.7520
16.174000 0.7520 0.7430 0.7440 0.7440 0.7550
16.204932 0.7550 0.7490 0.7500 0.7520 0.7520
16.236000 0.7580 0.7600 0.7630 0.7660 0.7690
16.266932 0.7700 0.7700 0.7690 0.7690 0.7690
16.298000 0.7700 0.7720 0.7730 0.7750 0.7780
16.328932 0.7800 0.7810 0.7810 0.7830 0.7840
16.360000 0.7870 0.7940 0.7980 0.7970 0.7950
16.390932 0.7970 0.7970 0.7980 0.8000 0.8010
16.421000 0.8030 0.8060 0.8080 0.8090 0.8140
16.451932 0.8170 0.8120 0.8120 0.8110 0.8110
16.483000 0.8120 0.8120 0.8120 0.8120 0.8120
16.513932 0.8140 0.8150 0.8150 0.8140 0.8140
16.545000 0.8140 0.8170 0.8170 0.8170 0.8150
16.575932 0.8140 0.8080 0.8060 0.8030 0.8010
16.607000 0.8040 0.8040 0.8080 0.8080 0.8080
16.637932 0.8080 0.8060 0.8040 0.8010 0.8000
16.669000 0.8010 0.8040 0.8090 0.8120 0.8120
16.699932 0.8120 0.8110 0.8110 0.8090 0.8080
16.731000 0.8090 0.8110 0.8120 0.8140 0.8150
16.761932 0.8170 0.8170 0.8180 0.8170 0.8150
16.792000 0.8140 0.8120 0.8120 0.8140 0.8150
16.822932 0.8170 0.8180 0.8170 0.8170 0.8170
16.854000 0.8170 0.8170 0.8170 0.8170 0.8170
16.884932 0.8170 0.8170 0.8170 0.8170 0.8150
16.916000 0.8140 0.8110 0.8110 0.8110 0.8110
16.946932 0.8110 0.8090 0.8090 0.8090 0.8080
16.978000 0.8080 0.8060 0.8040 0.8040 0.8030
17.008932 0.8030 0.8030 0.8010 0.7950 0.7920
17.040000 0.7910 0.7940 0.7980 0.7980 0.7970
17.070932 0.7950 0.7940 0.7910 0.7890 0.7870
17.102000 0.7840 0.7830 0.7810 0.7830 0.7830
17.132932 0.7830 0.7830 0.7810 0.7800 0.7780
17.163000 0.7670 0.7610 0.7580 0.7580 0.7580
17.193932 0.7560 0.7550 0.7520 0.7500 0.7490
17.225000 0.7430 0.7390 0.7320 0.7290 0.7260
17.255932 0.7210 0.7180 0.7180 0.7130 0.7100
17.287000 0.7080 0.7050 0.7040 0.7010 0.6990
17.317932 0.6880 0.6810 0.6640 0.6590 0.6510
17.349000 0.6480 0.6450 0.6390 0.6310 0.6280
17.379932 0.6200 0.6190 0.6060 0.5990 0.5910
17.411000 0.5820 0.5780 0.5710 0.5600 0.5520
17.441932 0.5400 0.5300 0.5210 0.5100 0.5010
17.473000 0.4920 0.4820 0.4700 0.4590 0.4480
17.503932 0.4390 0.4340 0.4280 0.4210 0.4100
17.534000 0.4020 0.3960 0.3830 0.3790 0.3690
17.564932 0.3600 0.3490 0.3480 0.3350 0.3290
17.596000 0.3180 0.3010 0.2950 0.2910 0.2810
17.626932 0.2800 0.2720 0.2600 0.2490 0.2410
17.658000 0.2390 0.2300 0.2270 0.2240 0.2210
17.688932 0.2130 0.2050 0.2010 0.1980 0.1900
17.720000 0.1810 0.1760 0.1680 0.1620 0.1590
17.750932 0.1570 0.1540 0.1530 0.1510 0.1510
17.782000 0.1500 0.1500 0.1470 0.1450 0.1430
17.812932 0.1430 0.1430 0.1450 0.1450 0.1470
17.844000 0.1470 0.1480 0.1500 0.1510 0.1570
17.874932 0.1670 0.1700 0.1780 0.1810 0.1910
17.905000 0.2010 0.2080 0.2150 0.2190 0.2240
17.935932 0.2290 0.2330 0.2380 0.2430 0.2490
17.967000 0.2550 0.2640 0.2700 0.2780 0.2830
17.997932 0.2980 0.3150 0.3320 0.3430 0.3590
18.029000 0.3730 0.3880 0.4020 0.4130 0.4220
18.059932 0.4300 0.4380 0.4410 0.4550 0.4720
18.091000 0.4820 0.4900 0.4930 0.5000 0.5120
18.121932 0.5260 0.5400 0.5440 0.5510 0.5580
18.153000 0.5580 0.5650 0.5690 0.5780 0.5830
18.183932 0.5890 0.6000 0.6090 0.6160 0.6230
18.215000 0.6330 0.6400 0.6480 0.6510 0.6560
18.245932 0.6570 0.6590 0.6620 0.6700 0.6730
18.277000 0.6780 0.6810 0.6900 0.6930 0.6990
18.307932 0.6990 0.7010 0.7020 0.7050 0.7080
18.338000 0.7080 0.7080 0.7150 0.7180 0.7210
18.368932 0.7240 0.7290 0.7320 0.7330 0.7380
18.400000 0.7410 0.7430 0.7430 0.7440 0.7440
18.430932 0.7460 0.7490 0.7490 0.7490 0.7490
18.462000 0.7470 0.7470 0.7490 0.7490 0.7490
18.492932 0.7490 0.7500 0.7530 0.7580 0.7600
18.524000 0.7610 0.7610 0.7610 0.7610 0.7630
18.554932 0.7640 0.7640 0.7640 0.7630 0.7610
18.586000 0.7600 0.7600 0.7600 0.7600 0.7600
18.616932 0.7610 0.7630 0.7630 0.7670 0.7690
18.648000 0.7700 0.7700 0.7720 0.7720 0.7700
18.678932 0.7700 0.7700 0.7700 0.7720 0.7720
18.709000 0.7720 0.7700 0.7700 0.7700 0.7700
18.739932 0.7730 0.7730 0.7720 0.7720 0.7720
18.771000 0.7720 0.7730 0.7750 0.7780 0.7780
18.801932 0.7810 0.7810 0.7810 0.7810 0.7810
18.833000 0.7810 0.7810 0.7810 0.7830 0.7840
18.863932 0.7870 0.7870 0.7910 0.7920 0.7920
18.895000 0.8000 0.8000 0.8010 0.8010 0.8030
18.925932 0.8040 0.8060 0.8060 0.8080 0.8080
18.957000 0.8080 0.8080 0.8090 0.8120 0.8150
18.987932 0.8170 0.8170 0.8180 0.8180 0.8180
19.019000 0.8180 0.8210 0.8210 0.8230 0.8230
19.049932 0.8250 0.8260 0.8280 0.8310 0.8310
19.080000 0.8320 0.8370 0.8390 0.8400 0.8420
19.110932 0.8420 0.8390 0.8370 0.8370 0.8370
19.142000 0.8390 0.8390 0.8390 0.8390 0.8370
19.172932 0.8370 0.8390 0.8400 0.8400 0.8420
19.204000 0.8420 0.8420 0.8400 0.8400 0.8420
19.234932 0.8420 0.8400 0.8390 0.8390 0.8370
19.266000 0.8390 0.8390 0.8390 0.8400 0.8400
19.296932 0.8400 0.8420 0.8420 0.8420 0.8420
19.328000 0.8420 0.8420 0.8420 0.8420 0.8430
19.358932 0.8480 0.8490 0.8490 0.8480 0.8480
19.390000 0.8460 0.8450 0.8430 0.8420 0.8430
19.420932 0.8430 0.8430 0.8420 0.8420 0.8350
19.451000 0.8350 0.8400 0.8420 0.8430 0.8430
19.481932 0.8390 0.8390 0.8370 0.8350 0.8350
19.513000 0.8350 0.8370 0.8370 0.8390 0.8400
19.543932 0.8420 0.8400 0.8390 0.8370 0.8370
19.575000 0.8390 0.8390 0.8400 0.8400 0.8400
19.605932 0.8390 0.8390 0.8390 0.8390 0.8390
19.637000 0.8390 0.8400 0.8400 0.8400 0.8400
19.667932 0.8420 0.8400 0.8400 0.8400 0.8400
19.699000 0.8420 0.8430 0.8480 0.8480 0.8490
19.729932 0.8490 0.8480 0.8480 0.8480 0.8510
19.761000 0.8510 0.8520 0.8520 0.8560 0.8570
19.791932 0.8590 0.8590 0.8540 0.8540 0.8520
19.822000 0.8520 0.8540 0.8560 0.8570 0.8570
19.852932 0.8570 0.8570 0.8590 0.8600 0.8620
19.884000 0.8620 0.8600 0.8590 0.8590 0.8590
19.914932 0.8600 0.8600 0.8600 0.8620 0.8600
19.946000 0.8600 0.8600 0.8620 0.8620 0.8620
19.976932 0.8620 0.8600 0.8600 0.8590 0.8590
20.008000 0.8600 0.8620 0.8630 0.8650 0.8680
20.038932 0.8680 0.8690 0.8710 0.8710 0.8730
20.070000 0.8740 0.8740 0.8730 0.8710 0.8690
20.100932 0.8680 0.8650 0.8620 0.8570 0.8560
20.132000 0.8560 0.8570 0.8570 0.8600 0.8620
20.162932 0.8620 0.8600 0.8540 0.8520 0.8490
20.193000 0.8490 0.8480 0.8490 0.8490 0.8480
20.223932 0.8480 0.8510 0.8510 0.8490 0.8490
20.255000 0.8480 0.8460 0.8450 0.8430 0.8420
20.285932 0.8390 0.8390 0.8400 0.8390 0.8390
20.317000 0.8350 0.8340 0.8340 0.8350 0.8350
20.347932 0.8350 0.8340 0.8320 0.8310 0.8310
20.379000 0.8310 0.8310 0.8290 0.8290 0.8290
20.409932 0.8280 0.8260 0.8230 0.8230 0.8210
20.441000 0.8200 0.8180 0.8180 0.8180 0.8180
20.471932 0.8180 0.8180 0.8180 0.8180 0.8180
20.503000 0.8180 0.8170 0.8110 0.8060 0.8060
20.533932 0.8030 0.8010 0.8010 0.8010 0.8030
20.564000 0.8030 0.8030 0.8030 0.8030 0.8040
20.594932 0.8040 0.8040 0.8040 0.8030 0.8030
20.626000 0.8030 0.8060 0.8060 0.8090 0.8110
20.656932 0.8110 0.8110 0.8110 0.8120 0.8110
20.688000 0.8080 0.8080 0.8060 0.8060 0.8080
20.718932 0.8060 0.8060 0.8060 0.8060 0.8080
20.750000 0.8080 0.8080 0.8090 0.8110 0.8110
20.780932 0.8090 0.8090 0.8110 0.8090 0.8090
20.812000 0.8090 0.8080 0.8080 0.8060 0.8080
20.842932 0.8140 0.8140 0.8110 0.8080 0.8080
20.874000 0.8110 0.8140 0.8120 0.8090 0.8080
20.904932 0.8090 0.8110 0.8110 0.8140 0.8180
20.936000 0.8180 0.8180 0.8170 0.8120 0.8120
20.966932 0.8120 0.8120 0.8140 0.8180 0.8200
20.997000 0.8210 0.8170 0.8170 0.8200 0.8200
21.027932 0.8200 0.8210 0.8250 0.8250 0.8250
21.059000 0.8250 0.8250 0.8250 0.8250 0.8280
21.089932 0.8280 0.8280 0.8280 0.8310 0.8310
21.121000 0.8310 0.8310 0.8310 0.8290 0.8290
21.151932 0.8280 0.8280 0.8280 0.8280 0.8250
21.183000 0.8230 0.8230 0.8250 0.8250 0.8260
21.213932 0.8280 0.8280 0.8230 0.8210 0.8200
21.245000 0.8210 0.8230 0.8230 0.8250 0.8250
21.275932 0.8210 0.8180 0.8170 0.8150 0.8150
21.307000 0.8150 0.8150 0.8170 0.8170 0.8170
21.337932 0.8170 0.8170 0.8170 0.8170 0.8170
21.368000 0.8170 0.8170 0.8170 0.8170 0.8170
21.398932 0.8180 0.8180 0.8170 0.8170 0.8150
21.430000 0.8170 0.8180 0.8200 0.8250 0.8290
21.460932 0.8310 0.8320 0.8320 0.8310 0.8320
21.492000 0.8320 0.8340 0.8350 0.8350 0.8350
21.522932 0.8350 0.8350 0.8350 0.8350 0.8370
21.554000 0.8390 0.8390 0.8400 0.8400 0.8400
21.584932 0.8420 0.8430 0.8450 0.8450 0.8460
21.616000 0.8480 0.8480 0.8480 0.8510 0.8520
21.646932 0.8540 0.8570 0.8590 0.8600 0.8620
21.678000 0.8680 0.8680 0.8690 0.8680 0.8680
21.708932 0.8660 0.8680 0.8710 0.8730 0.8760
21.739000 0.8770 0.8740 0.8710 0.8710 0.8710
21.769932 0.8710 0.8710 0.8730 0.8760 0.8770
21.801000 0.8770 0.8800 0.8830 0.8860 0.8860
21.831932 0.8790 0.8770 0.8760 0.8760 0.8770
21.863000 0.8770 0.8770 0.8770 0.8770 0.8770
21.893932 0.8790 0.8790 0.8770 0.8770 0.8790
21.925000 0.8790 0.8790 0.8790 0.8800 0.8860
21.955932 0.8880 0.8880 0.8900 0.8880 0.8880
21.987000 0.8860 0.8880 0.8880 0.8900 0.8900
22.017932 0.8910 0.8910 0.8910 0.8910 0.8910
22.049000 0.8910 0.8910 0.8910 0.8910 0.8910
22.079932 0.8970 0.8970 0.8930 0.8910 0.8880
22.110000 0.8880 0.8860 0.8860 0.8880 0.8880
22.140932 0.8860 0.8860 0.8820 0.8800 0.8790
22.172000 0.8770 0.8770 0.8760 0.8760 0.8790
22.202932 0.8800 0.8800 0.8800 0.8820 0.8860
22.234000 0.8880 0.8880 0.8880 0.8900 0.8900
22.264932 0.8900 0.8880 0.8770 0.8770 0.8770
22.296000 0.8770 0.8790 0.8790 0.8790 0.8770
22.326932 0.8770 0.8770 0.8770 0.8770 0.8790
22.358000 0.8770 0.8770 0.8740 0.8730 0.8710
22.388932 0.8710 0.8710 0.8710 0.8710 0.8710
22.420000 0.8710 0.8710 0.8730 0.8730 0.8740
22.450932 0.8740 0.8730 0.8710 0.8690 0.8680
22.481000 0.8660 0.8650 0.8630 0.8630 0.8630
22.511932 0.8650 0.8650 0.8630 0.8620 0.8620
22.543000 0.8620 0.8600 0.8600 0.8600 0.8600
22.573932 0.8590 0.8540 0.8510 0.8510 0.8480
22.605000 0.8430 0.8420 0.8390 0.8350 0.8340
22.635932 0.8310 0.8280 0.8250 0.8250 0.8210
22.667000 0.8210 0.8200 0.8180 0.8140 0.8090
22.697932 0.8080 0.8040 0.8010 0.8000 0.7980
22.729000 0.7890 0.7870 0.7870 0.7840 0.7780
22.759932 0.7720 0.7690 0.7610 0.7580 0.7530
22.791000 0.7470 0.7460 0.7430 0.7430 0.7430
22.821932 0.7410 0.7390 0.7390 0.7390 0.7390
22.852000 0.7390 0.7390 0.7390 0.7390 0.7390
22.882932 0.7380 0.7380 0.7380 0.7380 0.7390
22.914000 0.7410 0.7410 0.7410 0.7410 0.7440
22.944932 0.7490 0.7500 0.7550 0.7600 0.7640
22.976000 0.7670 0.7700 0.7730 0.7780 0.7810
23.006932 0.7860 0.7890 0.7940 0.7950 0.7970
23.038000 0.7980 0.8000 0.8000 0.8010 0.8040
23.068932 0.8060 0.8080 0.8090 0.8170 0.8200
23.100000 0.8230 0.8250 0.8250 0.8260 0.8280
23.130932 0.8290 0.8310 0.8320 0.8320 0.8340
23.162000 0.8370 0.8390 0.8400 0.8430 0.8450
23.192932 0.8460 0.8480 0.8490 0.8520 0.8540
23.223000 0.8540 0.8540 0.8540 0.8540 0.8560
23.253932 0.8560 0.8560 0.8590 0.8620 0.8650
23.285000 0.8650 0.8650 0.8650 0.8650 0.8650
23.315932 0.8660 0.8660 0.8680 0.8710 0.8710
23.347000 0.8690 0.8710 0.8710 0.8710 0.8710
23.377932 0.8710 0.8730 0.8740 0.8770 0.8770
23.409000 0.8710 0.8690 0.8680 0.8680 0.8680
23.439932 0.8680 0.8730 0.8770 0.8760 0.8740
23.471000 0.8710 0.8690 0.8680 0.8680 0.8680
23.501932 0.8710 0.8730 0.8740 0.8770 0.8770
23.533000 0.8770 0.8790 0.8790 0.8800 0.8800
23.563932 0.8800 0.8830 0.8880 0.8830 0.8790
23.595000 0.8790 0.8790 0.8790 0.8800 0.8800
23.625932 0.8800 0.8800 0.8790 0.8790 0.8770
23.656000 0.8770 0.8770 0.8740 0.8710 0.8680
23.686932 0.8660 0.8680 0.8680 0.8690 0.8690
23.718000 0.8690 0.8680 0.8660 0.8650 0.8650
23.748932 0.8650 0.8600 0.8600 0.8600 0.8600
23.780000 0.8600 0.8620 0.8630 0.8620 0.8620
23.810932 0.8600 0.8590 0.8570 0.8570 0.8570
23.842000 0.8510 0.8480 0.8430 0.8420 0.8420
23.872932 0.8400 0.8420 0.8430 0.8450 0.8450
23.904000 0.8430 0.8430 0.8430 0.8430 0.8430
23.934932 0.8430 0.8420 0.8390 0.8350 0.8340
23.966000 0.8340 0.8350 0.8390 0.8400 0.8420
23.996932 0.8430 0.8460 0.8460 0.8480 0.8480
24.027000 0.8460 0.8480 0.8490 0.8490 0.8520
24.057932 0.8520 0.8510 0.8520 0.8520 0.8540
24.089000 0.8570 0.8570 0.8570 0.8570 0.8590
24.119932 0.8600 0.8620 0.8630 0.8630 0.8620
24.151000 0.8620 0.8630 0.8630 0.8660 0.8660
24.181932 0.8630 0.8630 0.8620 0.8590 0.8560
24.213000 0.8560 0.8570 0.8590 0.8620 0.8620
24.243932 0.8570 0.8540 0.8510 0.8510 0.8510
24.275000 0.8510 0.8510 0.8520 0.8490 0.8430
24.305932 0.8390 0.8370 0.8370 0.8370 0.8370
24.337000 0.8370 0.8350 0.8340 0.8340 0.8320
24.367932 0.8320 0.8320 0.8320 0.8320 0.8340
24.398000 0.8340 0.8390 0.8370 0.8370 0.8340
24.428932 0.8340 0.8340 0.8340 0.8320 0.8320
24.460000 0.8290 0.8280 0.8260 0.8210 0.8210
24.490932 0.8210 0.8200 0.8200 0.8180 0.8170
24.522000 0.8170 0.8150 0.8140 0.8120 0.8110
24.552932 0.8110 0.8110 0.8110 0.8090 0.8090
24.584000 0.8090 0.8090 0.8090 0.8080 0.8060
24.614932 0.8000 0.7980 0.7950 0.7910 0.7890
24.646000 0.7890 0.7920 0.7950 0.7980 0.7980
24.676932 0.7980 0.7980 0.7970 0.7970 0.7950
24.708000 0.7940 0.7910 0.7910 0.7910 0.7910
24.738932 0.7890 0.7890 0.7890 0.7890 0.7890
24.769000 0.7890 0.7890 0.7890 0.7870 0.7870
24.799932 0.7860 0.7840 0.7840 0.7830 0.7810
24.831000 0.7800 0.7810 0.7800 0.7780 0.7730
24.861932 0.7720 0.7690 0.7670 0.7670 0.7670
24.893000 0.7610 0.7610 0.7610 0.7610 0.7600
24.923932 0.7580 0.7560 0.7500 0.7490 0.7490
24.955000 0.7490 0.7470 0.7470 0.7460 0.7440
24.985932 0.7460 0.7460 0.7490 0.7490 0.7390
25.017000 0.7350 0.7320 0.7300 0.7300 0.7300
25.047932 0.7290 0.7270 0.7270 0.7220 0.7190
25.079000 0.7160 0.7160 0.7130 0.7120 0.7070
25.109932 0.7040 0.7020 0.7010 0.6990 0.6990
25.140000 0.6980 0.6980 0.6980 0.6990 0.7020
25.170932 0.7040 0.7050 0.7050 0.7040 0.7020
25.202000 0.7010 0.7010 0.7010 0.7010 0.7020
25.232932 0.7020 0.7020 0.7050 0.7100 0.7150
25.264000 0.7160 0.7160 0.7160 0.7160 0.7150
25.294932 0.7130 0.7120 0.7100 0.7080 0.7080
25.326000 0.7070 0.7070 0.7050 0.7050 0.7050
25.356932 0.7040 0.7040 0.7050 0.7050 0.7050
25.388000 0.7050 0.7070 0.7080 0.7080 0.7070
25.418932 0.7040 0.7020 0.7020 0.7040 0.7040
25.450000 0.7040 0.7040 0.7020 0.7020 0.7010
25.480932 0.7010 0.6990 0.6990 0.7010 0.7010
25.511000 0.7020 0.7020 0.7010 0.7010 0.7010
25.541932 0.6990 0.6990 0.6980 0.6980 0.6980
25.573000 0.6980 0.6980 0.6980 0.6980 0.6980
25.603932 0.6980 0.6980 0.6980 0.6960 0.6960
25.635000 0.6960 0.6950 0.6930 0.6910 0.6880
25.665932 0.6870 0.6850 0.6850 0.6850 0.6850
25.697000 0.6850 0.6850 0.6850 0.6850 0.6850
25.727932 0.6840 0.6840 0.6840 0.6790 0.6790
25.759000 0.6780 0.6780 0.6780 0.6760 0.6760
25.789932 0.6760 0.6740 0.6730 0.6710 0.6700
25.821000 0.6700 0.6700 0.6680 0.6640 0.6640
25.851932 0.6620 0.6600 0.6570 0.6540 0.6510
25.883000 0.6510 0.6500 0.6500 0.6500 0.6480
25.913932 0.6480 0.6480 0.6500 0.6500 0.6500
25.944000 0.6480 0.6480 0.6500 0.6500 0.6500
25.974932 0.6500 0.6510 0.6530 0.6500
##END=
