##TITLE=1,4-DICHLOROBUTANE
##JCAMP-DX=4.24
##DATA TYPE=INFRARED SPECTRUM
##CLASS=COBLENTZ
##ORIGIN=W.T. BOLLETER
##OWNER=COBLENTZ SOCIETY
Collection (C) 2018 copyright by the U.S. Secretary of Commerce
on behalf of the United States of America. All rights reserved.
##DATE=Not specified, most likely prior to 1970
##CAS REGISTRY NO=110-56-5
##MOLFORM=C4 H8 Cl2
##SOURCE REFERENCE=COBLENTZ NO. 4504
##$NIST SOURCE=COBLENTZ
##$NIST IMAGE=cob4504
##SPECTROMETER/DATA SYSTEM=Not specified, most likely a prism, grating, or hybrid spectrometer.
##PATH LENGTH=0.0025 CM
##SAMPLING PROCEDURE=TRANSMISSION
##RESOLUTION=4
##DATA PROCESSING=DIGITIZED BY NIST FROM HARD COPY
##XUNITS=MICROMETERS
##YUNITS=TRANSMITTANCE
##XFACTOR=1.000000
##YFACTOR=1
##DELTAX=000.017614
##FIRSTX=14.556
##LASTX=38.0348
##FIRSTY=0.264
##MAXX=38.0348
##MINX=14.556
##MAXY=0.975
##MINY=0
##NPOINTS=1334
##XYDATA=(X++(Y..Y))
14.556000 0.2640 0.2640 0.2620 0.2620 0.2570
14.644137 0.2500 0.2420 0.2280 0.2170 0.2010
14.732000 0.1910 0.1730 0.1550 0.1460 0.1350
14.820137 0.1260 0.1070 0.0960 0.0800 0.0750
14.908000 0.0600 0.0480 0.0350 0.0300 0.0260
14.996137 0.0210 0.0140 0.0100 0.0070 0.0050
15.084000 0.0030 0.0010 0.0010 0.0000 0.0000
15.172137 0.0000 0.0000 0.0000 0.0000 0.0000
15.260000 0.0000 0.0000 0.0000 0.0000 0.0000
15.348137 0.0000 0.0000 0.0000 0.0000 0.0000
15.436000 0.0000 0.0000 0.0000 0.0000 0.0000
15.524137 0.0000 0.0000 0.0000 0.0000 0.0000
15.612000 0.0000 0.0000 0.0000 0.0010 0.0050
15.700137 0.0080 0.0100 0.0160 0.0210 0.0250
15.789000 0.0300 0.0390 0.0480 0.0620 0.0820
15.877137 0.0940 0.1080 0.1210 0.1330 0.1440
15.965000 0.1550 0.1670 0.1780 0.1890 0.2000
16.053137 0.2100 0.2190 0.2300 0.2410 0.2510
16.141000 0.2620 0.2730 0.2850 0.2980 0.3100
16.229137 0.3260 0.3420 0.3600 0.3760 0.3940
16.317000 0.4120 0.4300 0.4460 0.4640 0.4780
16.405137 0.4920 0.5140 0.5250 0.5390 0.5550
16.493000 0.5710 0.5870 0.6000 0.6100 0.6230
16.581137 0.6330 0.6440 0.6530 0.6620 0.6690
16.669000 0.6780 0.6850 0.6940 0.7010 0.7080
16.757137 0.7230 0.7330 0.7420 0.7510 0.7580
16.845000 0.7670 0.7750 0.7800 0.7870 0.7940
16.933137 0.8000 0.8070 0.8140 0.8190 0.8260
17.022000 0.8320 0.8410 0.8440 0.8500 0.8510
17.110137 0.8550 0.8580 0.8620 0.8660 0.8690
17.198000 0.8730 0.8760 0.8820 0.8830 0.8850
17.286137 0.8890 0.8920 0.8940 0.8960 0.8980
17.374000 0.9000 0.9010 0.9030 0.9030 0.9050
17.462137 0.9050 0.9050 0.9030 0.9010 0.9000
17.550000 0.8960 0.8940 0.8890 0.8830 0.8760
17.638137 0.8730 0.8670 0.8620 0.8570 0.8510
17.726000 0.8500 0.8500 0.8500 0.8510 0.8530
17.814137 0.8550 0.8600 0.8660 0.8750 0.8830
17.902000 0.8920 0.8980 0.9030 0.9170 0.9260
17.990137 0.9300 0.9330 0.9390 0.9410 0.9440
18.078000 0.9460 0.9460 0.9480 0.9480 0.9480
18.166137 0.9460 0.9460 0.9420 0.9410 0.9390
18.255000 0.9320 0.9250 0.9190 0.9140 0.9050
18.343137 0.9010 0.8980 0.8910 0.8830 0.8760
18.431000 0.8730 0.8690 0.8670 0.8660 0.8660
18.519137 0.8640 0.8640 0.8660 0.8660 0.8660
18.607000 0.8660 0.8670 0.8690 0.8690 0.8710
18.695137 0.8710 0.8690 0.8690 0.8670 0.8660
18.783000 0.8660 0.8640 0.8620 0.8580 0.8580
18.871137 0.8550 0.8530 0.8510 0.8500 0.8460
18.959000 0.8440 0.8440 0.8390 0.8320 0.8170
19.047137 0.8100 0.8010 0.7960 0.7850 0.7750
19.135000 0.7600 0.7510 0.7420 0.7300 0.7230
19.223137 0.7140 0.7050 0.6980 0.6890 0.6830
19.311000 0.6780 0.6760 0.6760 0.6760 0.6780
19.399137 0.6850 0.6910 0.6960 0.7000 0.7010
19.488000 0.7080 0.7140 0.7190 0.7210 0.7230
19.576137 0.7250 0.7280 0.7280 0.7300 0.7300
19.664000 0.7280 0.7260 0.7230 0.7160 0.7080
19.752137 0.7070 0.7030 0.7010 0.7000 0.6920
19.840000 0.6850 0.6820 0.6800 0.6780 0.6780
19.928137 0.6780 0.6800 0.6830 0.6910 0.6980
20.016000 0.7030 0.7100 0.7190 0.7280 0.7350
20.104137 0.7440 0.7550 0.7620 0.7710 0.7780
20.192000 0.7830 0.7910 0.8000 0.8030 0.8140
20.280137 0.8190 0.8230 0.8280 0.8330 0.8370
20.368000 0.8390 0.8420 0.8480 0.8510 0.8530
20.456137 0.8570 0.8580 0.8600 0.8620 0.8620
20.544000 0.8620 0.8640 0.8660 0.8670 0.8710
20.632137 0.8730 0.8730 0.8750 0.8750 0.8750
20.721000 0.8760 0.8760 0.8780 0.8800 0.8820
20.809137 0.8830 0.8830 0.8830 0.8830 0.8850
20.897000 0.8850 0.8850 0.8850 0.8850 0.8830
20.985137 0.8830 0.8830 0.8820 0.8800 0.8800
21.073000 0.8800 0.8780 0.8760 0.8760 0.8750
21.161137 0.8750 0.8730 0.8730 0.8710 0.8710
21.249000 0.8690 0.8690 0.8670 0.8660 0.8640
21.337137 0.8620 0.8600 0.8580 0.8570 0.8550
21.425000 0.8550 0.8530 0.8530 0.8510 0.8500
21.513137 0.8440 0.8420 0.8390 0.8320 0.8260
21.601000 0.8210 0.8170 0.8120 0.8050 0.7960
21.689137 0.7870 0.7760 0.7640 0.7530 0.7390
21.777000 0.7250 0.7080 0.6920 0.6750 0.6570
21.865137 0.6370 0.6170 0.5960 0.5730 0.5480
21.954000 0.5300 0.5140 0.4940 0.4730 0.4510
22.042137 0.4410 0.4170 0.4120 0.4080 0.4010
22.130000 0.3980 0.3960 0.3940 0.3960 0.4030
22.218137 0.4140 0.4250 0.4370 0.4510 0.4690
22.306000 0.4870 0.5260 0.5460 0.5660 0.5960
22.394137 0.6210 0.6440 0.6600 0.6820 0.7030
22.482000 0.7250 0.7420 0.7580 0.7750 0.7870
22.570137 0.8010 0.8120 0.8250 0.8350 0.8480
22.658000 0.8530 0.8620 0.8730 0.8800 0.8870
22.746137 0.8920 0.8980 0.9000 0.9010 0.9070
22.834000 0.9160 0.9170 0.9230 0.9260 0.9280
22.922137 0.9320 0.9350 0.9390 0.9410 0.9420
23.010000 0.9460 0.9500 0.9510 0.9510 0.9510
23.098137 0.9530 0.9550 0.9550 0.9550 0.9550
23.187000 0.9550 0.9530 0.9510 0.9480 0.9480
23.275137 0.9410 0.9370 0.9350 0.9330 0.9280
23.363000 0.9210 0.9080 0.9050 0.9000 0.8960
23.451137 0.8870 0.8780 0.8690 0.8580 0.8480
23.539000 0.8370 0.8250 0.8100 0.7940 0.7760
23.627137 0.7580 0.7370 0.7120 0.6870 0.6570
23.715000 0.6320 0.6070 0.5870 0.5510 0.5120
23.803137 0.4920 0.4710 0.4390 0.4030 0.3640
23.891000 0.3550 0.3440 0.3330 0.3230 0.3120
23.979137 0.3010 0.3000 0.3010 0.3160 0.3320
24.067000 0.3480 0.3640 0.3820 0.3910 0.4510
24.155137 0.4800 0.5320 0.5580 0.5850 0.6160
24.243000 0.6460 0.6800 0.7160 0.7500 0.7870
24.331137 0.8070 0.8280 0.8460 0.8640 0.8780
24.420000 0.8920 0.9010 0.9080 0.9210 0.9280
24.508137 0.9320 0.9350 0.9440 0.9510 0.9530
24.596000 0.9550 0.9550 0.9600 0.9620 0.9640
24.684137 0.9660 0.9670 0.9690 0.9730 0.9730
24.772000 0.9750 0.9750 0.9750 0.9750 0.9730
24.860137 0.9690 0.9660 0.9640 0.9620 0.9600
24.948000 0.9600 0.9580 0.9550 0.9530 0.9500
25.036137 0.9480 0.9420 0.9390 0.9350 0.9330
25.124000 0.9320 0.9300 0.9260 0.9230 0.9210
25.212137 0.9170 0.9160 0.9140 0.9120 0.9120
25.300000 0.9120 0.9100 0.9100 0.9080 0.9070
25.388137 0.9050 0.9050 0.9030 0.9030 0.9030
25.476000 0.9010 0.9000 0.8980 0.8960 0.8940
25.564137 0.8920 0.8910 0.8890 0.8850 0.8830
25.653000 0.8820 0.8820 0.8800 0.8780 0.8760
25.741137 0.8730 0.8670 0.8660 0.8620 0.8580
25.829000 0.8550 0.8530 0.8500 0.8420 0.8370
25.917137 0.8320 0.8260 0.8250 0.8210 0.8160
26.005000 0.8070 0.7960 0.7870 0.7820 0.7800
26.093137 0.7760 0.7730 0.7690 0.7640 0.7620
26.181000 0.7550 0.7510 0.7500 0.7480 0.7390
26.269137 0.7330 0.7280 0.7250 0.7210 0.7170
26.357000 0.7160 0.7140 0.7080 0.7050 0.7010
26.445137 0.6960 0.6910 0.6850 0.6780 0.6710
26.533000 0.6620 0.6530 0.6420 0.6320 0.6210
26.621137 0.6070 0.5920 0.5760 0.5580 0.5410
26.709000 0.5210 0.5100 0.4980 0.4800 0.4600
26.797137 0.4460 0.4300 0.4140 0.3960 0.3820
26.886000 0.3660 0.3500 0.3350 0.3190 0.3030
26.974137 0.2850 0.2820 0.2750 0.2670 0.2600
27.062000 0.2580 0.2550 0.2550 0.2530 0.2530
27.150137 0.2530 0.2550 0.2580 0.2690 0.2760
27.238000 0.2830 0.2910 0.2940 0.3170 0.3260
27.326137 0.3370 0.3500 0.3640 0.3820 0.3960
27.414000 0.4080 0.4190 0.4300 0.4390 0.4510
27.502137 0.4620 0.4730 0.4820 0.4920 0.5080
27.590000 0.5210 0.5280 0.5300 0.5350 0.5410
27.678137 0.5440 0.5500 0.5510 0.5530 0.5530
27.766000 0.5550 0.5570 0.5580 0.5580 0.5580
27.854137 0.5580 0.5580 0.5580 0.5570 0.5570
27.942000 0.5550 0.5510 0.5480 0.5440 0.5390
28.030137 0.5330 0.5280 0.5260 0.5210 0.5170
28.118000 0.5160 0.5070 0.5050 0.5010 0.5000
28.206137 0.4980 0.4890 0.4830 0.4800 0.4760
28.295000 0.4730 0.4690 0.4640 0.4570 0.4500
28.383137 0.4440 0.4370 0.4320 0.4230 0.4190
28.471000 0.4140 0.4100 0.4050 0.4000 0.3910
28.559137 0.3800 0.3750 0.3690 0.3640 0.3550
28.647000 0.3510 0.3460 0.3350 0.3280 0.3210
28.735137 0.3140 0.3030 0.3000 0.2910 0.2830
28.823000 0.2780 0.2710 0.2620 0.2550 0.2510
28.911137 0.2460 0.2370 0.2320 0.2250 0.2170
28.999000 0.2120 0.2030 0.2000 0.1960 0.1870
29.087137 0.1820 0.1750 0.1710 0.1640 0.1620
29.175000 0.1600 0.1550 0.1530 0.1510 0.1500
29.263137 0.1500 0.1500 0.1510 0.1510 0.1510
29.351000 0.1510 0.1530 0.1530 0.1550 0.1570
29.439137 0.1580 0.1640 0.1690 0.1730 0.1780
29.528000 0.1820 0.2030 0.2120 0.2190 0.2280
29.616137 0.2370 0.2460 0.2570 0.2690 0.2830
29.704000 0.2980 0.3070 0.3190 0.3370 0.3530
29.792137 0.3670 0.3800 0.3920 0.4050 0.4160
29.880000 0.4260 0.4370 0.4480 0.4580 0.4670
29.968137 0.4780 0.4890 0.5100 0.5250 0.5350
30.056000 0.5480 0.5510 0.5570 0.5660 0.5730
30.144137 0.5830 0.5910 0.5980 0.6050 0.6080
30.232000 0.6210 0.6250 0.6300 0.6370 0.6390
30.320137 0.6420 0.6440 0.6500 0.6510 0.6550
30.408000 0.6570 0.6640 0.6670 0.6690 0.6760
30.496137 0.6800 0.6890 0.6910 0.6940 0.6980
30.584000 0.7000 0.7000 0.7030 0.7050 0.7070
30.672137 0.7160 0.7210 0.7250 0.7260 0.7260
30.761000 0.7280 0.7280 0.7280 0.7280 0.7280
30.849137 0.7280 0.7320 0.7320 0.7330 0.7330
30.937000 0.7330 0.7350 0.7350 0.7350 0.7350
31.025137 0.7370 0.7370 0.7390 0.7410 0.7410
31.113000 0.7420 0.7420 0.7440 0.7440 0.7460
31.201137 0.7480 0.7480 0.7480 0.7500 0.7500
31.289000 0.7510 0.7510 0.7530 0.7530 0.7530
31.377137 0.7530 0.7530 0.7530 0.7550 0.7550
31.465000 0.7570 0.7580 0.7580 0.7620 0.7640
31.553137 0.7640 0.7660 0.7670 0.7670 0.7690
31.641000 0.7690 0.7690 0.7690 0.7690 0.7690
31.729137 0.7690 0.7690 0.7690 0.7690 0.7690
31.817000 0.7690 0.7710 0.7710 0.7710 0.7710
31.905137 0.7730 0.7730 0.7710 0.7710 0.7710
31.994000 0.7710 0.7710 0.7710 0.7710 0.7710
32.082137 0.7730 0.7730 0.7750 0.7760 0.7760
32.170000 0.7750 0.7750 0.7750 0.7750 0.7730
32.258137 0.7730 0.7730 0.7730 0.7730 0.7730
32.346000 0.7750 0.7750 0.7750 0.7750 0.7760
32.434137 0.7760 0.7760 0.7760 0.7760 0.7760
32.522000 0.7760 0.7760 0.7760 0.7760 0.7760
32.610137 0.7760 0.7760 0.7780 0.7780 0.7800
32.698000 0.7800 0.7820 0.7830 0.7870 0.7890
32.786137 0.7890 0.7910 0.7910 0.7910 0.7910
32.874000 0.7910 0.7890 0.7870 0.7870 0.7850
32.962137 0.7850 0.7830 0.7800 0.7760 0.7730
33.050000 0.7690 0.7670 0.7660 0.7640 0.7620
33.138137 0.7620 0.7600 0.7600 0.7580 0.7570
33.227000 0.7550 0.7550 0.7550 0.7550 0.7550
33.315137 0.7570 0.7570 0.7580 0.7600 0.7600
33.403000 0.7600 0.7600 0.7620 0.7620 0.7620
33.491137 0.7620 0.7640 0.7640 0.7640 0.7640
33.579000 0.7640 0.7640 0.7640 0.7620 0.7620
33.667137 0.7620 0.7620 0.7620 0.7620 0.7620
33.755000 0.7620 0.7620 0.7620 0.7620 0.7620
33.843137 0.7620 0.7620 0.7620 0.7620 0.7620
33.931000 0.7620 0.7620 0.7620 0.7620 0.7620
34.019137 0.7620 0.7600 0.7600 0.7600 0.7600
34.107000 0.7580 0.7580 0.7580 0.7580 0.7580
34.195137 0.7580 0.7580 0.7580 0.7580 0.7550
34.283000 0.7550 0.7550 0.7530 0.7530 0.7510
34.371137 0.7500 0.7500 0.7460 0.7420 0.7410
34.460000 0.7390 0.7350 0.7320 0.7280 0.7250
34.548137 0.7210 0.7190 0.7170 0.7140 0.7120
34.636000 0.7100 0.7050 0.7030 0.7000 0.6960
34.724137 0.6870 0.6800 0.6750 0.6710 0.6690
34.812000 0.6660 0.6640 0.6620 0.6620 0.6600
34.900137 0.6600 0.6580 0.6570 0.6550 0.6550
34.988000 0.6530 0.6510 0.6500 0.6480 0.6440
35.076137 0.6420 0.6410 0.6410 0.6390 0.6390
35.164000 0.6390 0.6370 0.6350 0.6330 0.6330
35.252137 0.6280 0.6250 0.6210 0.6170 0.6160
35.340000 0.6120 0.6070 0.6050 0.6000 0.5960
35.428137 0.5910 0.5910 0.5870 0.5850 0.5830
35.516000 0.5820 0.5780 0.5730 0.5660 0.5640
35.604137 0.5620 0.5550 0.5510 0.5480 0.5410
35.693000 0.5370 0.5330 0.5300 0.5260 0.5230
35.781137 0.5210 0.5190 0.5170 0.5140 0.5100
35.869000 0.5070 0.5070 0.5030 0.5010 0.5000
35.957137 0.4980 0.4940 0.4920 0.4890 0.4850
36.045000 0.4820 0.4800 0.4760 0.4750 0.4730
36.133137 0.4710 0.4690 0.4670 0.4620 0.4580
36.221000 0.4580 0.4550 0.4530 0.4530 0.4530
36.309137 0.4530 0.4510 0.4510 0.4500 0.4500
36.397000 0.4480 0.4480 0.4440 0.4420 0.4410
36.485137 0.4390 0.4370 0.4350 0.4330 0.4300
36.573000 0.4260 0.4250 0.4230 0.4210 0.4190
36.661137 0.4120 0.4100 0.4080 0.4070 0.4070
36.749000 0.4070 0.4070 0.4070 0.4050 0.4050
36.837137 0.4030 0.4030 0.4010 0.4010 0.4010
36.926000 0.4000 0.3980 0.3980 0.3960 0.3960
37.014137 0.3960 0.3960 0.3940 0.3940 0.3940
37.102000 0.3940 0.3940 0.3940 0.3940 0.3960
37.190137 0.3960 0.3960 0.3960 0.3960 0.3960
37.278000 0.3960 0.3980 0.3980 0.3980 0.3980
37.366137 0.3980 0.3980 0.3980 0.3980 0.3980
37.454000 0.3980 0.3980 0.3980 0.4000 0.4000
37.542137 0.4000 0.4000 0.4000 0.4010 0.4010
37.630000 0.4010 0.4010 0.4010 0.4010 0.4010
37.718137 0.4010 0.4010 0.4010 0.4010 0.4010
37.806000 0.4010 0.4010 0.4010 0.4000 0.4000
37.894137 0.4000 0.4000 0.4000 0.4000 0.4010
37.982000 0.4010 0.4050 0.4050 0.4070
##END=
