##TITLE=BROMAL
##JCAMP-DX=4.24
##DATA TYPE=INFRARED SPECTRUM
##CLASS=COBLENTZ
##ORIGIN=WYANDOTTE CHEMICALS CORP., WYANDOTTE, MICHIGAN, USA
##OWNER=COBLENTZ SOCIETY
Collection (C) 2018 copyright by the U.S. Secretary of Commerce
on behalf of the United States of America. All rights reserved.
##DATE=Not specified, most likely prior to 1970
##NAMES=tribromoacetaldehyde
##CAS REGISTRY NO=115-17-3
##MOLFORM=C2 H Br3 O
##BP=71-74 C AT 18 mmHg
##SOURCE REFERENCE=COBLENTZ NO. 3808
##$NIST SOURCE=COBLENTZ
##$NIST IMAGE=cob3808
##SPECTROMETER/DATA SYSTEM=Not specified, most likely a prism, grating, or hybrid spectrometer.
##STATE=LIQUID
##PATH LENGTH=0.003 CM
##SAMPLING PROCEDURE=TRANSMISSION
##RESOLUTION=4
##DATA PROCESSING=DIGITIZED BY NIST FROM HARD COPY
##XUNITS=MICROMETERS
##YUNITS=TRANSMITTANCE
##XFACTOR=1.000000
##YFACTOR=1
##DELTAX=000.006189
##FIRSTX=2.025
##LASTX=15.9933
##FIRSTY=1.003
##MAXX=15.9933
##MINX=2.025
##MAXY=1.003
##MINY=0.021
##NPOINTS=2258
##XYDATA=(X++(Y..Y))
2.025000 1.0030 1.0010 1.0030 1.0010 0.9960
2.055960 0.9980 0.9960 0.9960 0.9960 0.9950
2.087000 0.9950 0.9950 0.9930 0.9920 0.9900
2.117960 0.9900 0.9900 0.9900 0.9900 0.9920
2.149000 0.9980 0.9980 1.0000 1.0000 1.0010
2.179960 1.0010 1.0010 1.0010 1.0000 0.9980
2.210000 0.9960 0.9960 0.9980 0.9980 1.0000
2.240960 1.0000 1.0000 1.0000 1.0000 1.0000
2.272000 1.0000 1.0000 1.0000 1.0000 1.0000
2.302960 1.0000 1.0000 0.9980 0.9960 0.9950
2.334000 0.9930 0.9930 0.9930 0.9930 0.9930
2.364960 0.9930 0.9950 0.9950 0.9950 0.9950
2.396000 0.9950 0.9950 0.9930 0.9930 0.9920
2.426960 0.9920 0.9920 0.9920 0.9900 0.9900
2.458000 0.9900 0.9900 0.9890 0.9890 0.9890
2.488960 0.9870 0.9870 0.9870 0.9870 0.9870
2.520000 0.9890 0.9890 0.9900 0.9900 0.9890
2.550960 0.9890 0.9890 0.9870 0.9860 0.9860
2.582000 0.9840 0.9840 0.9820 0.9810 0.9790
2.612960 0.9750 0.9750 0.9760 0.9760 0.9790
2.644000 0.9790 0.9790 0.9810 0.9810 0.9810
2.674960 0.9810 0.9810 0.9810 0.9810 0.9810
2.706000 0.9790 0.9790 0.9790 0.9780 0.9780
2.736960 0.9760 0.9780 0.9780 0.9780 0.9780
2.767000 0.9780 0.9780 0.9780 0.9760 0.9730
2.797960 0.9680 0.9640 0.9590 0.9530 0.9500
2.829000 0.9470 0.9400 0.9370 0.9330 0.9280
2.859960 0.9230 0.9200 0.9160 0.9080 0.8940
2.891000 0.8770 0.8520 0.8240 0.8160 0.8010
2.921960 0.7990 0.8020 0.8410 0.8540 0.8710
2.953000 0.8890 0.9090 0.9200 0.9270 0.9300
2.983960 0.9310 0.9310 0.9330 0.9360 0.9400
3.015000 0.9400 0.9420 0.9420 0.9440 0.9440
3.045960 0.9440 0.9450 0.9450 0.9450 0.9450
3.077000 0.9440 0.9440 0.9440 0.9420 0.9420
3.107960 0.9420 0.9440 0.9440 0.9440 0.9440
3.139000 0.9450 0.9450 0.9450 0.9450 0.9450
3.169960 0.9450 0.9450 0.9450 0.9450 0.9450
3.201000 0.9440 0.9440 0.9420 0.9400 0.9400
3.231960 0.9390 0.9390 0.9370 0.9360 0.9360
3.263000 0.9360 0.9360 0.9360 0.9340 0.9340
3.293960 0.9340 0.9340 0.9340 0.9340 0.9330
3.324000 0.9330 0.9330 0.9330 0.9330 0.9310
3.354960 0.9300 0.9300 0.9300 0.9300 0.9280
3.386000 0.9280 0.9280 0.9250 0.9230 0.9230
3.416960 0.9200 0.9190 0.9160 0.9140 0.9090
3.448000 0.9090 0.9140 0.9140 0.9130 0.9110
3.478960 0.9090 0.9050 0.8950 0.8800 0.8550
3.510000 0.8350 0.8100 0.7760 0.7340 0.6870
3.540960 0.6780 0.6780 0.6890 0.7670 0.8050
3.572000 0.8610 0.8850 0.9020 0.9190 0.9200
3.602960 0.9230 0.9270 0.9280 0.9280 0.9300
3.634000 0.9310 0.9310 0.9330 0.9310 0.9250
3.664960 0.9200 0.9190 0.9200 0.9200 0.9250
3.696000 0.9330 0.9370 0.9370 0.9310 0.9300
3.726960 0.9280 0.9280 0.9230 0.9190 0.9170
3.758000 0.9170 0.9170 0.9190 0.9250 0.9280
3.788960 0.9330 0.9390 0.9420 0.9420 0.9400
3.820000 0.9390 0.9360 0.9360 0.9390 0.9400
3.850960 0.9420 0.9440 0.9450 0.9450 0.9450
3.882000 0.9450 0.9470 0.9470 0.9470 0.9470
3.912960 0.9470 0.9470 0.9470 0.9470 0.9470
3.943000 0.9470 0.9450 0.9450 0.9440 0.9370
3.973960 0.9340 0.9330 0.9330 0.9420 0.9420
4.005000 0.9400 0.9390 0.9390 0.9370 0.9370
4.035960 0.9390 0.9400 0.9420 0.9420 0.9420
4.067000 0.9400 0.9400 0.9390 0.9360 0.9310
4.097960 0.9310 0.9370 0.9370 0.9370 0.9370
4.129000 0.9370 0.9360 0.9310 0.9310 0.9340
4.159960 0.9340 0.9340 0.9340 0.9340 0.9340
4.191000 0.9340 0.9330 0.9330 0.9330 0.9330
4.221960 0.9310 0.9300 0.9300 0.9300 0.9310
4.253000 0.9310 0.9330 0.9340 0.9400 0.9440
4.283960 0.9470 0.9500 0.9530 0.9540 0.9580
4.315000 0.9580 0.9580 0.9580 0.9580 0.9580
4.345960 0.9590 0.9590 0.9610 0.9610 0.9620
4.377000 0.9610 0.9580 0.9530 0.9500 0.9470
4.407960 0.9450 0.9450 0.9440 0.9420 0.9420
4.439000 0.9400 0.9390 0.9390 0.9390 0.9370
4.469960 0.9370 0.9370 0.9360 0.9340 0.9340
4.500000 0.9340 0.9340 0.9340 0.9340 0.9370
4.530960 0.9390 0.9390 0.9390 0.9390 0.9400
4.562000 0.9400 0.9390 0.9390 0.9390 0.9370
4.592960 0.9370 0.9370 0.9370 0.9370 0.9370
4.624000 0.9370 0.9370 0.9370 0.9390 0.9390
4.654960 0.9390 0.9390 0.9390 0.9390 0.9390
4.686000 0.9400 0.9440 0.9450 0.9450 0.9450
4.716960 0.9450 0.9470 0.9450 0.9450 0.9400
4.748000 0.9390 0.9360 0.9360 0.9370 0.9370
4.778960 0.9370 0.9370 0.9370 0.9370 0.9370
4.810000 0.9370 0.9360 0.9360 0.9370 0.9390
4.840960 0.9390 0.9390 0.9390 0.9400 0.9400
4.872000 0.9390 0.9390 0.9370 0.9370 0.9370
4.902960 0.9340 0.9340 0.9360 0.9360 0.9360
4.934000 0.9360 0.9360 0.9340 0.9330 0.9310
4.964960 0.9310 0.9330 0.9330 0.9330 0.9310
4.996000 0.9300 0.9300 0.9300 0.9280 0.9270
5.026960 0.9200 0.9160 0.9140 0.9110 0.9090
5.057000 0.9030 0.9000 0.8920 0.8880 0.8850
5.087960 0.8800 0.8770 0.8740 0.8740 0.8750
5.119000 0.8780 0.8800 0.8800 0.8810 0.8850
5.149960 0.8940 0.8990 0.9030 0.9050 0.9050
5.181000 0.9050 0.9050 0.9050 0.9030 0.9030
5.211960 0.8970 0.8940 0.8910 0.8910 0.8950
5.243000 0.9000 0.9080 0.9110 0.9130 0.9140
5.273960 0.9170 0.9170 0.9190 0.9190 0.9170
5.305000 0.9140 0.9110 0.9130 0.9140 0.9130
5.335960 0.9090 0.9060 0.9060 0.9140 0.9160
5.367000 0.9170 0.9190 0.9190 0.9190 0.9190
5.397960 0.9190 0.9170 0.9170 0.9170 0.9160
5.429000 0.9160 0.9130 0.9110 0.9080 0.9080
5.459960 0.9030 0.9020 0.9000 0.9000 0.8970
5.491000 0.8940 0.8920 0.8920 0.8920 0.8910
5.521960 0.8890 0.8890 0.8880 0.8880 0.8880
5.553000 0.8880 0.8890 0.8890 0.8880 0.8880
5.583960 0.8880 0.8860 0.8810 0.8750 0.8600
5.615000 0.8490 0.8350 0.8210 0.8150 0.8090
5.645960 0.8020 0.7930 0.7710 0.7570 0.7430
5.676000 0.7180 0.6770 0.6350 0.5760 0.5260
5.706960 0.3940 0.3120 0.2260 0.1550 0.0940
5.738000 0.0270 0.0210 0.0260 0.0310 0.0400
5.768960 0.0550 0.0850 0.1800 0.3070 0.4420
5.800000 0.4980 0.5520 0.6490 0.6830 0.7000
5.830960 0.7180 0.7200 0.7110 0.6900 0.6810
5.862000 0.6810 0.6900 0.7180 0.7500 0.7850
5.892960 0.8160 0.8470 0.8600 0.8640 0.8680
5.924000 0.8680 0.8720 0.8780 0.8780 0.8780
5.954960 0.8800 0.8800 0.8800 0.8800 0.8800
5.986000 0.8810 0.8850 0.8860 0.8880 0.8910
6.016960 0.8940 0.8990 0.9000 0.9020 0.9030
6.048000 0.9030 0.9020 0.9000 0.8990 0.8990
6.078960 0.8990 0.9050 0.9050 0.9050 0.9050
6.110000 0.9030 0.9000 0.8990 0.8990 0.8970
6.140960 0.8970 0.8970 0.8970 0.8970 0.8970
6.172000 0.8970 0.8970 0.8990 0.8990 0.9020
6.202960 0.9030 0.9030 0.9020 0.9030 0.9030
6.233000 0.9090 0.9160 0.9160 0.9080 0.9090
6.263960 0.9110 0.9140 0.9130 0.9110 0.9130
6.295000 0.9140 0.9140 0.9170 0.9170 0.9110
6.325960 0.9110 0.9080 0.9060 0.9030 0.9020
6.357000 0.9030 0.9060 0.9130 0.9130 0.9110
6.387960 0.9050 0.9020 0.8990 0.8950 0.8950
6.419000 0.8950 0.8990 0.8990 0.9000 0.9000
6.449960 0.9020 0.9030 0.9030 0.9030 0.9030
6.481000 0.9030 0.9030 0.9060 0.9060 0.9080
6.511960 0.9110 0.9130 0.9110 0.9110 0.9110
6.543000 0.9130 0.9130 0.9110 0.9110 0.9090
6.573960 0.9090 0.9090 0.9110 0.9110 0.9130
6.605000 0.9140 0.9190 0.9190 0.9160 0.9140
6.635960 0.9140 0.9140 0.9130 0.9130 0.9130
6.667000 0.9130 0.9130 0.9130 0.9130 0.9140
6.697960 0.9160 0.9160 0.9140 0.9130 0.9110
6.729000 0.9110 0.9090 0.9110 0.9130 0.9170
6.759960 0.9170 0.9140 0.9130 0.9130 0.9090
6.790000 0.9080 0.9090 0.9090 0.9130 0.9140
6.820960 0.9140 0.9140 0.9160 0.9160 0.9130
6.852000 0.9130 0.9110 0.9080 0.9060 0.9060
6.882960 0.9080 0.9110 0.9090 0.9060 0.9060
6.914000 0.9090 0.9090 0.9090 0.9090 0.9090
6.944960 0.9090 0.9090 0.9080 0.9030 0.9030
6.976000 0.9030 0.9030 0.9050 0.9030 0.9030
7.006960 0.9030 0.9030 0.9030 0.9020 0.9000
7.038000 0.9000 0.8990 0.8990 0.8990 0.8970
7.068960 0.8990 0.8990 0.8950 0.8920 0.8910
7.100000 0.8880 0.8860 0.8810 0.8800 0.8800
7.130960 0.8780 0.8780 0.8720 0.8710 0.8710
7.162000 0.8680 0.8680 0.8680 0.8660 0.8640
7.192960 0.8610 0.8600 0.8580 0.8570 0.8570
7.224000 0.8570 0.8540 0.8540 0.8520 0.8520
7.254960 0.8490 0.8470 0.8430 0.8410 0.8400
7.286000 0.8320 0.8240 0.8120 0.7990 0.7850
7.316960 0.7700 0.7450 0.7250 0.6950 0.6690
7.347000 0.6140 0.5660 0.5310 0.4670 0.4200
7.377960 0.3970 0.3970 0.4050 0.4470 0.4920
7.409000 0.5270 0.5620 0.6310 0.6800 0.7250
7.439960 0.7530 0.7730 0.7990 0.8150 0.8260
7.471000 0.8350 0.8400 0.8430 0.8500 0.8550
7.501960 0.8610 0.8660 0.8680 0.8690 0.8690
7.533000 0.8710 0.8720 0.8750 0.8780 0.8780
7.563960 0.8780 0.8780 0.8780 0.8800 0.8800
7.595000 0.8810 0.8810 0.8810 0.8800 0.8780
7.625960 0.8780 0.8800 0.8810 0.8810 0.8810
7.657000 0.8830 0.8850 0.8850 0.8860 0.8860
7.687960 0.8860 0.8860 0.8850 0.8850 0.8810
7.719000 0.8810 0.8830 0.8850 0.8850 0.8850
7.749960 0.8850 0.8830 0.8830 0.8850 0.8860
7.781000 0.8880 0.8880 0.8850 0.8800 0.8770
7.811960 0.8750 0.8740 0.8740 0.8720 0.8710
7.843000 0.8710 0.8710 0.8710 0.8690 0.8680
7.873960 0.8680 0.8660 0.8630 0.8630 0.8610
7.905000 0.8600 0.8580 0.8580 0.8580 0.8600
7.935960 0.8600 0.8600 0.8600 0.8600 0.8610
7.966000 0.8630 0.8660 0.8660 0.8680 0.8680
7.996960 0.8680 0.8690 0.8710 0.8720 0.8740
8.028000 0.8740 0.8750 0.8770 0.8770 0.8780
8.058960 0.8780 0.8780 0.8780 0.8780 0.8800
8.090000 0.8810 0.8810 0.8810 0.8830 0.8830
8.120960 0.8850 0.8850 0.8830 0.8830 0.8830
8.152000 0.8830 0.8830 0.8830 0.8830 0.8810
8.182960 0.8810 0.8810 0.8810 0.8800 0.8800
8.214000 0.8800 0.8780 0.8770 0.8750 0.8750
8.244960 0.8740 0.8720 0.8720 0.8750 0.8750
8.276000 0.8750 0.8740 0.8720 0.8710 0.8720
8.306960 0.8720 0.8720 0.8710 0.8710 0.8690
8.338000 0.8690 0.8690 0.8690 0.8710 0.8710
8.368960 0.8710 0.8710 0.8710 0.8710 0.8720
8.400000 0.8740 0.8750 0.8770 0.8780 0.8830
8.430960 0.8830 0.8850 0.8860 0.8860 0.8880
8.462000 0.8880 0.8880 0.8860 0.8860 0.8850
8.492960 0.8830 0.8850 0.8860 0.8880 0.8880
8.523000 0.8880 0.8860 0.8860 0.8860 0.8860
8.553960 0.8880 0.8880 0.8890 0.8890 0.8880
8.585000 0.8860 0.8850 0.8860 0.8860 0.8860
8.615960 0.8850 0.8850 0.8850 0.8830 0.8830
8.647000 0.8810 0.8810 0.8810 0.8800 0.8780
8.677960 0.8780 0.8780 0.8770 0.8770 0.8740
8.709000 0.8740 0.8740 0.8710 0.8690 0.8680
8.739960 0.8660 0.8680 0.8680 0.8690 0.8690
8.771000 0.8690 0.8680 0.8660 0.8660 0.8610
8.801960 0.8580 0.8580 0.8550 0.8520 0.8500
8.833000 0.8490 0.8470 0.8430 0.8400 0.8380
8.863960 0.8320 0.8290 0.8210 0.8190 0.8180
8.895000 0.8180 0.8180 0.8150 0.8150 0.8130
8.925960 0.8120 0.8120 0.8100 0.8090 0.8090
8.957000 0.8050 0.8040 0.8010 0.7990 0.7990
8.987960 0.7950 0.7930 0.7900 0.7870 0.7840
9.019000 0.7820 0.7810 0.7790 0.7770 0.7740
9.049960 0.7710 0.7650 0.7590 0.7590 0.7560
9.080000 0.7560 0.7540 0.7540 0.7530 0.7510
9.110960 0.7510 0.7510 0.7530 0.7530 0.7560
9.142000 0.7570 0.7590 0.7600 0.7630 0.7710
9.172960 0.7740 0.7760 0.7760 0.7790 0.7840
9.204000 0.7880 0.7910 0.7950 0.7980 0.7990
9.234960 0.7990 0.8010 0.8050 0.8100 0.8150
9.266000 0.8180 0.8160 0.8070 0.8070 0.8180
9.296960 0.8180 0.8160 0.8150 0.8100 0.8100
9.328000 0.8180 0.8150 0.8100 0.8090 0.8100
9.358960 0.8100 0.8100 0.8090 0.8090 0.8050
9.390000 0.8040 0.8010 0.7980 0.7930 0.7910
9.420960 0.7900 0.7880 0.7840 0.7810 0.7810
9.452000 0.7790 0.7770 0.7770 0.7810 0.7820
9.482960 0.7840 0.7850 0.7840 0.7820 0.7790
9.514000 0.7770 0.7760 0.7760 0.7760 0.7790
9.544960 0.7790 0.7790 0.7740 0.7710 0.7710
9.576000 0.7740 0.7740 0.7740 0.7740 0.7740
9.606960 0.7730 0.7710 0.7700 0.7670 0.7630
9.637000 0.7620 0.7620 0.7600 0.7590 0.7590
9.667960 0.7560 0.7540 0.7530 0.7500 0.7500
9.699000 0.7430 0.7400 0.7360 0.7290 0.7250
9.729960 0.7200 0.7200 0.7140 0.7060 0.7000
9.761000 0.6900 0.6840 0.6770 0.6720 0.6670
9.791960 0.6520 0.6390 0.6180 0.6000 0.5940
9.823000 0.5740 0.5600 0.5450 0.5150 0.4640
9.853960 0.4340 0.4050 0.3780 0.3500 0.3210
9.885000 0.2870 0.2590 0.2250 0.1970 0.1700
9.915960 0.1450 0.1300 0.1110 0.1000 0.0770
9.947000 0.0620 0.0540 0.0490 0.0450 0.0410
9.977960 0.0400 0.0370 0.0350 0.0340 0.0340
10.009000 0.0340 0.0350 0.0370 0.0370 0.0400
10.039960 0.0410 0.0460 0.0510 0.0590 0.0620
10.071000 0.0680 0.0720 0.0790 0.0850 0.0970
10.101960 0.1000 0.1020 0.1080 0.1080 0.1130
10.133000 0.1140 0.1160 0.1140 0.1100 0.1050
10.163960 0.0990 0.0930 0.0850 0.0790 0.0710
10.195000 0.0620 0.0520 0.0490 0.0490 0.0480
10.225960 0.0480 0.0510 0.0660 0.0850 0.0990
10.256000 0.1210 0.1470 0.1890 0.2310 0.2630
10.286960 0.3020 0.3440 0.3850 0.4200 0.4470
10.318000 0.4720 0.4860 0.5000 0.5210 0.5340
10.348960 0.5520 0.5850 0.6020 0.6130 0.6240
10.380000 0.6330 0.6450 0.6610 0.6720 0.6840
10.410960 0.6970 0.7010 0.7090 0.7150 0.7340
10.442000 0.7430 0.7500 0.7530 0.7570 0.7620
10.472960 0.7630 0.7680 0.7700 0.7730 0.7820
10.504000 0.7900 0.7910 0.7980 0.7980 0.8010
10.534960 0.8020 0.8090 0.8090 0.8120 0.8130
10.566000 0.8150 0.8160 0.8160 0.8160 0.8160
10.596960 0.8150 0.8150 0.8160 0.8180 0.8180
10.628000 0.8190 0.8180 0.8190 0.8190 0.8190
10.658960 0.8210 0.8220 0.8220 0.8240 0.8240
10.690000 0.8210 0.8190 0.8210 0.8210 0.8210
10.720960 0.8220 0.8220 0.8220 0.8240 0.8240
10.752000 0.8220 0.8220 0.8210 0.8220 0.8240
10.782960 0.8270 0.8290 0.8290 0.8290 0.8290
10.813000 0.8270 0.8270 0.8270 0.8270 0.8270
10.843960 0.8260 0.8260 0.8260 0.8290 0.8300
10.875000 0.8320 0.8330 0.8400 0.8410 0.8410
10.905960 0.8400 0.8400 0.8410 0.8410 0.8430
10.937000 0.8430 0.8430 0.8440 0.8490 0.8490
10.967960 0.8500 0.8520 0.8550 0.8550 0.8550
10.999000 0.8540 0.8540 0.8540 0.8540 0.8550
11.029960 0.8550 0.8570 0.8570 0.8570 0.8570
11.061000 0.8550 0.8550 0.8550 0.8550 0.8550
11.091960 0.8570 0.8550 0.8550 0.8550 0.8550
11.123000 0.8580 0.8580 0.8580 0.8580 0.8580
11.153960 0.8580 0.8580 0.8580 0.8580 0.8580
11.185000 0.8580 0.8570 0.8550 0.8550 0.8550
11.215960 0.8540 0.8540 0.8540 0.8550 0.8550
11.247000 0.8570 0.8580 0.8580 0.8580 0.8580
11.277960 0.8580 0.8580 0.8580 0.8580 0.8580
11.309000 0.8580 0.8580 0.8580 0.8580 0.8580
11.339960 0.8570 0.8580 0.8580 0.8580 0.8580
11.370000 0.8580 0.8570 0.8570 0.8540 0.8520
11.400960 0.8500 0.8500 0.8490 0.8470 0.8470
11.432000 0.8490 0.8500 0.8500 0.8490 0.8470
11.462960 0.8470 0.8470 0.8460 0.8440 0.8430
11.494000 0.8410 0.8410 0.8430 0.8430 0.8440
11.524960 0.8470 0.8470 0.8440 0.8430 0.8430
11.556000 0.8430 0.8430 0.8430 0.8440 0.8440
11.586960 0.8460 0.8470 0.8500 0.8520 0.8520
11.618000 0.8550 0.8580 0.8600 0.8600 0.8600
11.648960 0.8600 0.8600 0.8600 0.8600 0.8600
11.680000 0.8600 0.8600 0.8600 0.8580 0.8600
11.710960 0.8600 0.8610 0.8630 0.8640 0.8640
11.742000 0.8660 0.8660 0.8640 0.8640 0.8630
11.772960 0.8610 0.8610 0.8630 0.8660 0.8690
11.804000 0.8720 0.8720 0.8710 0.8710 0.8680
11.834960 0.8680 0.8680 0.8680 0.8680 0.8680
11.866000 0.8680 0.8680 0.8680 0.8690 0.8690
11.896960 0.8690 0.8690 0.8690 0.8690 0.8690
11.927000 0.8690 0.8690 0.8690 0.8690 0.8690
11.957960 0.8690 0.8690 0.8690 0.8710 0.8710
11.989000 0.8720 0.8710 0.8710 0.8690 0.8680
12.019960 0.8680 0.8660 0.8640 0.8630 0.8630
12.051000 0.8610 0.8600 0.8600 0.8600 0.8580
12.081960 0.8580 0.8580 0.8580 0.8580 0.8580
12.113000 0.8580 0.8550 0.8540 0.8520 0.8500
12.143960 0.8500 0.8500 0.8490 0.8470 0.8440
12.175000 0.8440 0.8430 0.8410 0.8400 0.8400
12.205960 0.8400 0.8410 0.8410 0.8430 0.8430
12.237000 0.8400 0.8400 0.8380 0.8400 0.8400
12.267960 0.8380 0.8330 0.8300 0.8270 0.8260
12.299000 0.8240 0.8220 0.8220 0.8210 0.8190
12.329960 0.8180 0.8160 0.8150 0.8150 0.8130
12.361000 0.8120 0.8090 0.8090 0.8040 0.8020
12.391960 0.7990 0.7980 0.7960 0.7950 0.7930
12.423000 0.7910 0.7840 0.7810 0.7730 0.7700
12.453960 0.7630 0.7590 0.7540 0.7510 0.7430
12.485000 0.7390 0.7320 0.7290 0.7230 0.7170
12.515960 0.7040 0.6900 0.6810 0.6750 0.6690
12.546000 0.6590 0.6410 0.6240 0.6020 0.5880
12.576960 0.5790 0.5620 0.5350 0.5170 0.5100
12.608000 0.4610 0.4340 0.4030 0.3750 0.3500
12.638960 0.3260 0.3010 0.2710 0.2460 0.2220
12.670000 0.1870 0.1590 0.1360 0.1140 0.1000
12.700960 0.0830 0.0690 0.0600 0.0510 0.0460
12.732000 0.0430 0.0410 0.0410 0.0380 0.0350
12.762960 0.0320 0.0310 0.0320 0.0350 0.0400
12.794000 0.0430 0.0480 0.0510 0.0540 0.0590
12.824960 0.0660 0.0800 0.0910 0.1110 0.1220
12.856000 0.1390 0.1630 0.1730 0.2010 0.2200
12.886960 0.2460 0.2820 0.3070 0.3260 0.3410
12.918000 0.3500 0.3660 0.3990 0.4160 0.4280
12.948960 0.4390 0.4500 0.4700 0.4870 0.4920
12.980000 0.4980 0.5010 0.5040 0.5130 0.5200
13.010960 0.5270 0.5340 0.5350 0.5370 0.5370
13.042000 0.5370 0.5380 0.5450 0.5490 0.5510
13.072960 0.5520 0.5590 0.5590 0.5600 0.5620
13.103000 0.5620 0.5630 0.5650 0.5650 0.5660
13.133960 0.5660 0.5680 0.5710 0.5720 0.5720
13.165000 0.5740 0.5740 0.5760 0.5790 0.5820
13.195960 0.5830 0.5850 0.5860 0.5860 0.5880
13.227000 0.5900 0.5910 0.5970 0.5970 0.5990
13.257960 0.6020 0.6050 0.6080 0.6080 0.6100
13.289000 0.6110 0.6140 0.6180 0.6180 0.6190
13.319960 0.6210 0.6250 0.6330 0.6390 0.6410
13.351000 0.6420 0.6470 0.6490 0.6500 0.6560
13.381960 0.6630 0.6660 0.6670 0.6700 0.6720
13.413000 0.6720 0.6720 0.6730 0.6730 0.6750
13.443960 0.6750 0.6780 0.6800 0.6830 0.6870
13.475000 0.6890 0.6890 0.6890 0.6920 0.6940
13.505960 0.6950 0.6970 0.6980 0.7000 0.7010
13.537000 0.7000 0.6980 0.6970 0.6980 0.7000
13.567960 0.7000 0.7000 0.7000 0.7000 0.7000
13.599000 0.7010 0.7000 0.7000 0.7000 0.7000
13.629960 0.7000 0.7010 0.7010 0.7000 0.7000
13.660000 0.7000 0.6980 0.6980 0.6980 0.6980
13.690960 0.6980 0.6970 0.6980 0.6980 0.6950
13.722000 0.6940 0.6900 0.6890 0.6860 0.6830
13.752960 0.6830 0.6840 0.6860 0.6860 0.6870
13.784000 0.6860 0.6860 0.6830 0.6810 0.6780
13.814960 0.6780 0.6830 0.6840 0.6840 0.6860
13.846000 0.6870 0.6890 0.6890 0.6890 0.6900
13.876960 0.6900 0.6900 0.6900 0.6900 0.6900
13.908000 0.6900 0.6900 0.6900 0.6920 0.6940
13.938960 0.6950 0.6950 0.6950 0.6940 0.6940
13.970000 0.6940 0.6950 0.6950 0.6970 0.6980
14.000960 0.6980 0.6970 0.6980 0.6980 0.7000
14.032000 0.7000 0.7000 0.6970 0.6970 0.6970
14.062960 0.6970 0.6970 0.6970 0.7000 0.7000
14.094000 0.7000 0.7000 0.7000 0.7000 0.6980
14.124960 0.6980 0.6980 0.6980 0.6980 0.7000
14.156000 0.7000 0.7000 0.7000 0.7000 0.6950
14.186960 0.6940 0.6900 0.6900 0.6920 0.6920
14.218000 0.6920 0.6950 0.6950 0.6940 0.6940
14.248960 0.6920 0.6920 0.6900 0.6900 0.6920
14.279000 0.6940 0.6920 0.6900 0.6890 0.6890
14.309960 0.6900 0.6920 0.6950 0.6980 0.6980
14.341000 0.7000 0.7000 0.7000 0.7000 0.7000
14.371960 0.7000 0.7000 0.7000 0.7000 0.7000
14.403000 0.7010 0.7010 0.7010 0.7010 0.7030
14.433960 0.7040 0.7060 0.7060 0.7040 0.7040
14.465000 0.7040 0.7030 0.7030 0.7010 0.7010
14.495960 0.7010 0.7040 0.7040 0.7060 0.7090
14.527000 0.7110 0.7120 0.7120 0.7140 0.7140
14.557960 0.7150 0.7170 0.7180 0.7170 0.7180
14.589000 0.7200 0.7200 0.7200 0.7220 0.7220
14.619960 0.7200 0.7200 0.7220 0.7200 0.7200
14.651000 0.7200 0.7180 0.7180 0.7170 0.7180
14.681960 0.7180 0.7180 0.7170 0.7140 0.7110
14.713000 0.7080 0.7040 0.7030 0.7030 0.7010
14.743960 0.7010 0.7000 0.6980 0.6970 0.6950
14.775000 0.6920 0.6900 0.6890 0.6890 0.6830
14.805960 0.6800 0.6780 0.6730 0.6700 0.6690
14.836000 0.6640 0.6610 0.6590 0.6580 0.6580
14.866960 0.6580 0.6560 0.6530 0.6500 0.6470
14.898000 0.6420 0.6330 0.6300 0.6280 0.6280
14.928960 0.6250 0.6210 0.6160 0.6130 0.6160
14.960000 0.6180 0.6210 0.6220 0.6210 0.6210
14.990960 0.6190 0.6180 0.6180 0.6210 0.6220
15.022000 0.6220 0.6240 0.6280 0.6310 0.6330
15.052960 0.6390 0.6420 0.6450 0.6410 0.6410
15.084000 0.6420 0.6420 0.6450 0.6450 0.6420
15.114960 0.6410 0.6390 0.6390 0.6390 0.6390
15.146000 0.6390 0.6380 0.6360 0.6310 0.6310
15.176960 0.6300 0.6300 0.6310 0.6350 0.6360
15.208000 0.6380 0.6380 0.6380 0.6390 0.6390
15.238960 0.6390 0.6410 0.6410 0.6420 0.6440
15.270000 0.6500 0.6530 0.6520 0.6500 0.6500
15.300960 0.6500 0.6450 0.6410 0.6390 0.6420
15.332000 0.6420 0.6410 0.6390 0.6390 0.6390
15.362960 0.6360 0.6350 0.6350 0.6310 0.6280
15.393000 0.6250 0.6140 0.6100 0.6040 0.6000
15.423960 0.5990 0.5940 0.5930 0.5910 0.5900
15.455000 0.5860 0.5800 0.5790 0.5740 0.5710
15.485960 0.5690 0.5650 0.5630 0.5590 0.5510
15.517000 0.5450 0.5400 0.5320 0.5290 0.5230
15.547960 0.5130 0.5100 0.5090 0.5070 0.5070
15.579000 0.5040 0.5030 0.5030 0.5010 0.4980
15.609960 0.4930 0.4920 0.4890 0.4870 0.4840
15.641000 0.4820 0.4820 0.4820 0.4860 0.4900
15.671960 0.4950 0.4980 0.5000 0.4900 0.4920
15.703000 0.4960 0.5010 0.5090 0.5120 0.5120
15.733960 0.5070 0.5070 0.5070 0.5090 0.5100
15.765000 0.5130 0.5180 0.5200 0.5210 0.5260
15.795960 0.5310 0.5370 0.5400 0.5410 0.5430
15.827000 0.5450 0.5460 0.5480 0.5480 0.5510
15.857960 0.5540 0.5590 0.5600 0.5620 0.5620
15.889000 0.5630 0.5650 0.5660 0.5690 0.5710
15.919960 0.5770 0.5830 0.5880 0.5930 0.5990
15.950000 0.6000 0.6000 0.6020 0.6050 0.6050
15.980960 0.6050 0.6080 0.6080
##END=
