##TITLE=1,3-DICHLOROBUTANE
##JCAMP-DX=4.24
##DATA TYPE=INFRARED SPECTRUM
##CLASS=COBLENTZ
##ORIGIN=W.T. BOLLETER
##OWNER=COBLENTZ SOCIETY
Collection (C) 2018 copyright by the U.S. Secretary of Commerce
on behalf of the United States of America. All rights reserved.
##DATE=Not specified, most likely prior to 1970
##CAS REGISTRY NO=1190-22-3
##MOLFORM=C4 H8 Cl2
##SOURCE REFERENCE=COBLENTZ NO. 4500
##$NIST SOURCE=COBLENTZ
##$NIST IMAGE=cob4500
##SPECTROMETER/DATA SYSTEM=Not specified, most likely a prism, grating, or hybrid spectrometer.
##PATH LENGTH=0.0025 CM
##SAMPLING PROCEDURE=TRANSMISSION
##RESOLUTION=4
##DATA PROCESSING=DIGITIZED BY NIST FROM HARD COPY
##XUNITS=MICROMETERS
##YUNITS=TRANSMITTANCE
##XFACTOR=1.000000
##YFACTOR=1
##DELTAX=000.017621
##FIRSTX=14.546
##LASTX=38.0349
##FIRSTY=0.271
##MAXX=38.0349
##MINX=14.546
##MAXY=0.964
##MINY=0
##NPOINTS=1334
##XYDATA=(X++(Y..Y))
14.546000 0.2710 0.2680 0.2640 0.2610 0.2570
14.634172 0.2460 0.2340 0.2230 0.2060 0.1980
14.722000 0.1810 0.1580 0.1490 0.1330 0.1100
14.810172 0.1010 0.0790 0.0630 0.0510 0.0390
14.899000 0.0280 0.0190 0.0100 0.0010 0.0000
14.987172 0.0000 0.0000 0.0000 0.0000 0.0000
15.075000 0.0000 0.0000 0.0000 0.0000 0.0000
15.163172 0.0000 0.0000 0.0000 0.0000 0.0000
15.251000 0.0000 0.0000 0.0000 0.0000 0.0000
15.339172 0.0000 0.0000 0.0000 0.0000 0.0000
15.427000 0.0010 0.0050 0.0120 0.0150 0.0240
15.515172 0.0310 0.0420 0.0560 0.0740 0.0780
15.604000 0.0830 0.1030 0.1100 0.1220 0.1260
15.692172 0.1290 0.1310 0.1330 0.1330 0.1330
15.780000 0.1330 0.1310 0.1290 0.1260 0.1220
15.868172 0.1170 0.1060 0.0970 0.0830 0.0710
15.956000 0.0650 0.0630 0.0550 0.0490 0.0350
16.044172 0.0190 0.0120 0.0050 0.0030 0.0010
16.132000 0.0000 0.0000 0.0000 0.0000 0.0000
16.220172 0.0000 0.0000 0.0000 0.0000 0.0000
16.308000 0.0000 0.0000 0.0000 0.0000 0.0000
16.396172 0.0000 0.0000 0.0000 0.0000 0.0000
16.485000 0.0000 0.0000 0.0000 0.0000 0.0000
16.573172 0.0000 0.0000 0.0000 0.0000 0.0000
16.661000 0.0000 0.0000 0.0000 0.0000 0.0000
16.749172 0.0000 0.0000 0.0000 0.0010 0.0050
16.837000 0.0100 0.0140 0.0170 0.0190 0.0470
16.925172 0.0650 0.0830 0.0900 0.1040 0.1290
17.013000 0.1700 0.2340 0.2480 0.2640 0.2940
17.101172 0.3090 0.3480 0.3730 0.3970 0.4200
17.189000 0.4470 0.4670 0.4860 0.5020 0.5310
17.277172 0.5520 0.5700 0.5980 0.6140 0.6260
17.366000 0.6390 0.6510 0.6640 0.6820 0.6980
17.454172 0.7050 0.7080 0.7210 0.7420 0.7510
17.542000 0.7540 0.7610 0.7690 0.7720 0.7770
17.630172 0.7830 0.7880 0.7990 0.8010 0.8110
17.718000 0.8170 0.8240 0.8310 0.8360 0.8410
17.806172 0.8490 0.8540 0.8610 0.8630 0.8650
17.894000 0.8700 0.8750 0.8800 0.8880 0.8910
17.982172 0.8980 0.9020 0.9050 0.9050 0.9090
18.070000 0.9140 0.9180 0.9200 0.9250 0.9300
18.158172 0.9320 0.9340 0.9360 0.9390 0.9430
18.247000 0.9480 0.9500 0.9520 0.9530 0.9550
18.335172 0.9590 0.9620 0.9640 0.9640 0.9640
18.423000 0.9640 0.9640 0.9640 0.9620 0.9590
18.511172 0.9570 0.9550 0.9530 0.9480 0.9460
18.599000 0.9430 0.9360 0.9320 0.9270 0.9200
18.687172 0.9110 0.8980 0.8880 0.8720 0.8610
18.775000 0.8500 0.8330 0.8040 0.7930 0.7670
18.863172 0.7460 0.7210 0.6960 0.6580 0.6280
18.952000 0.6140 0.5860 0.5630 0.5380 0.5110
19.040172 0.5000 0.4740 0.4540 0.4520 0.4520
19.128000 0.4540 0.4650 0.4770 0.4950 0.4970
19.216172 0.5200 0.5480 0.5730 0.6020 0.6280
19.304000 0.6510 0.6760 0.6990 0.7190 0.7440
19.392172 0.7530 0.7670 0.7740 0.7770 0.7790
19.480000 0.7830 0.7830 0.7810 0.7720 0.7650
19.568172 0.7530 0.7460 0.7330 0.7150 0.6990
19.656000 0.6850 0.6640 0.6480 0.6320 0.6180
19.744172 0.6030 0.5950 0.5710 0.5520 0.5340
19.833000 0.5180 0.4970 0.4740 0.4600 0.4450
19.921172 0.4220 0.4030 0.3870 0.3690 0.3490
20.009000 0.3370 0.3250 0.3170 0.3140 0.3160
20.097172 0.3170 0.3280 0.3410 0.3570 0.3780
20.185000 0.3990 0.4240 0.4450 0.4740 0.4990
20.273172 0.5310 0.5550 0.5910 0.6090 0.6440
20.361000 0.6620 0.6850 0.7030 0.7240 0.7460
20.449172 0.7540 0.7690 0.7860 0.8010 0.8080
20.537000 0.8200 0.8270 0.8310 0.8360 0.8430
20.625172 0.8500 0.8520 0.8570 0.8610 0.8650
20.714000 0.8660 0.8680 0.8720 0.8730 0.8750
20.802172 0.8770 0.8800 0.8800 0.8820 0.8820
20.890000 0.8820 0.8820 0.8840 0.8840 0.8860
20.978172 0.8860 0.8860 0.8840 0.8840 0.8820
21.066000 0.8820 0.8820 0.8840 0.8840 0.8840
21.154172 0.8840 0.8820 0.8820 0.8820 0.8820
21.242000 0.8820 0.8820 0.8820 0.8820 0.8820
21.330172 0.8800 0.8800 0.8790 0.8770 0.8750
21.419000 0.8750 0.8730 0.8730 0.8720 0.8680
21.507172 0.8650 0.8630 0.8630 0.8610 0.8590
21.595000 0.8560 0.8540 0.8520 0.8500 0.8490
21.683172 0.8410 0.8340 0.8290 0.8250 0.8240
21.771000 0.8200 0.8150 0.8060 0.8020 0.8020
21.859172 0.8010 0.7950 0.7850 0.7770 0.7720
21.947000 0.7690 0.7630 0.7560 0.7470 0.7350
22.035172 0.7210 0.7120 0.7050 0.7010 0.6960
22.123000 0.6820 0.6710 0.6550 0.6390 0.6280
22.211172 0.6190 0.6110 0.6000 0.5870 0.5750
22.300000 0.5590 0.5480 0.5310 0.5180 0.5020
22.388172 0.4930 0.4740 0.4540 0.4450 0.4360
22.476000 0.4130 0.3960 0.3740 0.3570 0.3440
22.564172 0.3300 0.3160 0.3010 0.2840 0.2680
22.652000 0.2550 0.2480 0.2320 0.2230 0.2200
22.740172 0.2160 0.2110 0.2060 0.2060 0.2040
22.828000 0.2040 0.2040 0.2060 0.2070 0.2110
22.916172 0.2200 0.2320 0.2380 0.2480 0.2530
23.004000 0.2660 0.2770 0.2890 0.2980 0.3090
23.092172 0.3160 0.3280 0.3370 0.3460 0.3550
23.181000 0.3690 0.3780 0.3880 0.4010 0.4040
23.269172 0.4170 0.4220 0.4290 0.4450 0.4490
23.357000 0.4540 0.4700 0.4790 0.4860 0.4970
23.445172 0.5000 0.5020 0.5070 0.5150 0.5220
23.533000 0.5290 0.5380 0.5390 0.5450 0.5500
23.621172 0.5540 0.5630 0.5710 0.5770 0.5800
23.709000 0.5840 0.5890 0.5930 0.5960 0.6000
23.797172 0.6020 0.6030 0.6050 0.6070 0.6110
23.885000 0.6140 0.6140 0.6160 0.6160 0.6160
23.973172 0.6120 0.6120 0.6110 0.6070 0.6030
24.062000 0.6000 0.5980 0.5910 0.5840 0.5730
24.150172 0.5550 0.5500 0.5390 0.5270 0.5180
24.238000 0.5040 0.4930 0.4740 0.4560 0.4360
24.326172 0.4190 0.3990 0.3760 0.3530 0.3300
24.414000 0.3100 0.2890 0.2710 0.2520 0.2320
24.502172 0.2130 0.1880 0.1810 0.1740 0.1580
24.590000 0.1520 0.1490 0.1450 0.1430 0.1420
24.678172 0.1420 0.1430 0.1470 0.1500 0.1560
24.767000 0.1700 0.1810 0.1970 0.2130 0.2290
24.855172 0.2450 0.2590 0.2620 0.2660 0.2730
24.943000 0.2770 0.2800 0.2820 0.2840 0.2850
25.031172 0.2870 0.2870 0.2870 0.2870 0.2850
25.119000 0.2840 0.2820 0.2800 0.2770 0.2730
25.207172 0.2710 0.2660 0.2620 0.2530 0.2520
25.295000 0.2500 0.2450 0.2340 0.2290 0.2270
25.383172 0.2230 0.2200 0.2160 0.2130 0.2110
25.471000 0.2090 0.2090 0.2090 0.2090 0.2110
25.559172 0.2110 0.2130 0.2180 0.2230 0.2270
25.648000 0.2300 0.2460 0.2530 0.2680 0.2780
25.736172 0.2960 0.3010 0.3170 0.3280 0.3460
25.824000 0.3550 0.3710 0.3830 0.3990 0.4130
25.912172 0.4330 0.4470 0.4540 0.4680 0.4810
26.000000 0.4950 0.5070 0.5200 0.5320 0.5390
26.088172 0.5500 0.5570 0.5680 0.5800 0.5930
26.176000 0.6020 0.6120 0.6230 0.6280 0.6340
26.264172 0.6420 0.6530 0.6600 0.6670 0.6730
26.352000 0.6780 0.6850 0.6900 0.6980 0.7010
26.440172 0.7030 0.7060 0.7120 0.7150 0.7210
26.529000 0.7240 0.7280 0.7310 0.7350 0.7400
26.617172 0.7490 0.7510 0.7530 0.7560 0.7600
26.705000 0.7630 0.7630 0.7650 0.7670 0.7670
26.793172 0.7690 0.7690 0.7700 0.7700 0.7720
26.881000 0.7720 0.7740 0.7760 0.7760 0.7760
26.969172 0.7790 0.7790 0.7790 0.7790 0.7810
27.057000 0.7810 0.7810 0.7810 0.7830 0.7830
27.145172 0.7830 0.7830 0.7830 0.7810 0.7810
27.233000 0.7810 0.7790 0.7790 0.7760 0.7740
27.321172 0.7700 0.7670 0.7650 0.7630 0.7610
27.410000 0.7600 0.7560 0.7540 0.7530 0.7460
27.498172 0.7400 0.7350 0.7300 0.7260 0.7220
27.586000 0.7210 0.7150 0.7120 0.7050 0.7030
27.674172 0.7010 0.6990 0.6900 0.6850 0.6800
27.762000 0.6740 0.6660 0.6570 0.6530 0.6510
27.850172 0.6500 0.6390 0.6300 0.6230 0.6160
27.938000 0.6070 0.6050 0.6030 0.6000 0.5950
28.026172 0.5910 0.5870 0.5800 0.5750 0.5680
28.115000 0.5570 0.5500 0.5390 0.5320 0.5270
28.203172 0.5200 0.5130 0.5040 0.4990 0.4900
28.291000 0.4790 0.4700 0.4560 0.4520 0.4440
28.379172 0.4310 0.4220 0.4130 0.4060 0.3970
28.467000 0.3900 0.3800 0.3670 0.3490 0.3440
28.555172 0.3350 0.3230 0.3140 0.3010 0.2870
28.643000 0.2750 0.2570 0.2500 0.2360 0.2270
28.731172 0.2160 0.2060 0.2020 0.1910 0.1770
28.819000 0.1700 0.1630 0.1520 0.1500 0.1380
28.907172 0.1310 0.1260 0.1200 0.1110 0.1040
28.996000 0.0950 0.0940 0.0880 0.0790 0.0760
29.084172 0.0740 0.0710 0.0690 0.0650 0.0620
29.172000 0.0600 0.0600 0.0560 0.0560 0.0550
29.260172 0.0550 0.0530 0.0530 0.0530 0.0530
29.348000 0.0530 0.0530 0.0530 0.0550 0.0550
29.436172 0.0560 0.0600 0.0630 0.0670 0.0710
29.524000 0.0760 0.0780 0.0850 0.0920 0.1010
29.612172 0.1040 0.1150 0.1240 0.1330 0.1420
29.700000 0.1540 0.1650 0.1720 0.1860 0.2020
29.788172 0.2160 0.2360 0.2460 0.2590 0.2710
29.877000 0.2870 0.3030 0.3170 0.3330 0.3490
29.965172 0.3620 0.3760 0.3960 0.4220 0.4360
30.053000 0.4470 0.4520 0.4610 0.4760 0.4860
30.141172 0.5020 0.5130 0.5200 0.5290 0.5470
30.229000 0.5550 0.5700 0.5840 0.5980 0.6050
30.317172 0.6210 0.6300 0.6390 0.6510 0.6570
30.405000 0.6670 0.6730 0.6780 0.6890 0.6980
30.493172 0.7030 0.7150 0.7220 0.7280 0.7330
30.581000 0.7370 0.7420 0.7510 0.7540 0.7650
30.669172 0.7690 0.7720 0.7810 0.7880 0.7920
30.758000 0.7930 0.8010 0.8010 0.8040 0.8060
30.846172 0.8150 0.8220 0.8250 0.8330 0.8360
30.934000 0.8410 0.8450 0.8470 0.8500 0.8520
31.022172 0.8540 0.8570 0.8610 0.8630 0.8630
31.110000 0.8650 0.8660 0.8700 0.8720 0.8730
31.198172 0.8770 0.8790 0.8820 0.8820 0.8840
31.286000 0.8880 0.8910 0.8950 0.8950 0.8960
31.374172 0.8980 0.8980 0.9000 0.9000 0.9020
31.463000 0.9040 0.9040 0.9040 0.9040 0.9040
31.551172 0.9020 0.9020 0.9000 0.9000 0.8980
31.639000 0.8980 0.8980 0.8960 0.8960 0.8960
31.727172 0.8960 0.8960 0.8960 0.8960 0.8950
31.815000 0.8950 0.8930 0.8910 0.8860 0.8840
31.903172 0.8840 0.8820 0.8820 0.8800 0.8790
31.991000 0.8790 0.8770 0.8750 0.8750 0.8730
32.079172 0.8720 0.8700 0.8680 0.8660 0.8650
32.167000 0.8610 0.8590 0.8570 0.8560 0.8540
32.255172 0.8520 0.8500 0.8450 0.8410 0.8380
32.344000 0.8360 0.8310 0.8270 0.8250 0.8250
32.432172 0.8220 0.8180 0.8170 0.8130 0.8080
32.520000 0.8020 0.7970 0.7930 0.7900 0.7880
32.608172 0.7850 0.7810 0.7760 0.7700 0.7670
32.696000 0.7650 0.7630 0.7560 0.7530 0.7510
32.784172 0.7490 0.7470 0.7460 0.7460 0.7440
32.872000 0.7420 0.7420 0.7400 0.7380 0.7370
32.960172 0.7370 0.7350 0.7330 0.7300 0.7240
33.048000 0.7150 0.7080 0.6980 0.6850 0.6760
33.136172 0.6730 0.6670 0.6620 0.6550 0.6510
33.225000 0.6480 0.6370 0.6320 0.6280 0.6260
33.313172 0.6260 0.6260 0.6230 0.6210 0.6190
33.401000 0.6180 0.6180 0.6190 0.6210 0.6210
33.489172 0.6210 0.6210 0.6230 0.6230 0.6230
33.577000 0.6230 0.6250 0.6250 0.6250 0.6260
33.665172 0.6280 0.6340 0.6370 0.6410 0.6420
33.753000 0.6440 0.6500 0.6530 0.6600 0.6660
33.841172 0.6670 0.6710 0.6760 0.6800 0.6830
33.930000 0.6890 0.6980 0.6990 0.7010 0.7060
34.018172 0.7100 0.7150 0.7190 0.7220 0.7260
34.106000 0.7280 0.7330 0.7370 0.7380 0.7420
34.194172 0.7510 0.7530 0.7540 0.7560 0.7600
34.282000 0.7600 0.7630 0.7670 0.7700 0.7760
34.370172 0.7770 0.7790 0.7810 0.7830 0.7850
34.458000 0.7860 0.7880 0.7900 0.7920 0.7930
34.546172 0.7950 0.7950 0.7950 0.7930 0.7930
34.634000 0.7920 0.7900 0.7900 0.7880 0.7880
34.722172 0.7880 0.7900 0.7900 0.7900 0.7900
34.811000 0.7900 0.7900 0.7900 0.7900 0.7900
34.899172 0.7900 0.7900 0.7900 0.7900 0.7920
34.987000 0.7920 0.7920 0.7920 0.7920 0.7920
35.075172 0.7920 0.7920 0.7930 0.7930 0.7930
35.163000 0.7930 0.7930 0.7930 0.7930 0.7930
35.251172 0.7930 0.7930 0.7930 0.7930 0.7930
35.339000 0.7920 0.7920 0.7920 0.7930 0.7920
35.427172 0.7920 0.7900 0.7900 0.7900 0.7900
35.515000 0.7880 0.7860 0.7830 0.7830 0.7810
35.603172 0.7770 0.7760 0.7760 0.7760 0.7760
35.692000 0.7760 0.7760 0.7760 0.7740 0.7740
35.780172 0.7720 0.7700 0.7690 0.7670 0.7650
35.868000 0.7650 0.7630 0.7630 0.7610 0.7610
35.956172 0.7600 0.7580 0.7540 0.7540 0.7530
36.044000 0.7530 0.7490 0.7490 0.7470 0.7440
36.132172 0.7420 0.7400 0.7380 0.7380 0.7370
36.220000 0.7370 0.7350 0.7330 0.7330 0.7310
36.308172 0.7310 0.7310 0.7310 0.7330 0.7330
36.396000 0.7310 0.7310 0.7310 0.7300 0.7310
36.484172 0.7310 0.7310 0.7310 0.7300 0.7300
36.573000 0.7280 0.7280 0.7280 0.7260 0.7260
36.661172 0.7260 0.7260 0.7260 0.7280 0.7280
36.749000 0.7280 0.7280 0.7280 0.7280 0.7280
36.837172 0.7300 0.7300 0.7280 0.7280 0.7280
36.925000 0.7280 0.7260 0.7260 0.7220 0.7220
37.013172 0.7210 0.7170 0.7150 0.7120 0.7080
37.101000 0.7050 0.7030 0.7030 0.7010 0.7010
37.189172 0.7010 0.6990 0.6980 0.6980 0.6960
37.278000 0.6960 0.6940 0.6920 0.6920 0.6900
37.366172 0.6890 0.6870 0.6850 0.6830 0.6800
37.454000 0.6780 0.6780 0.6760 0.6740 0.6730
37.542172 0.6730 0.6730 0.6730 0.6710 0.6710
37.630000 0.6670 0.6670 0.6660 0.6660 0.6660
37.718172 0.6660 0.6660 0.6660 0.6660 0.6660
37.806000 0.6660 0.6660 0.6640 0.6640 0.6620
37.894172 0.6600 0.6580 0.6570 0.6530 0.6510
37.982000 0.6500 0.6500 0.6500 0.6500
##END=
