##TITLE=1,3-DICHLOROPROPANE
##JCAMP-DX=4.24
##DATA TYPE=INFRARED SPECTRUM
##CLASS=COBLENTZ
##ORIGIN=W.T. BOLLETER
##OWNER=COBLENTZ SOCIETY
Collection (C) 2018 copyright by the U.S. Secretary of Commerce
on behalf of the United States of America. All rights reserved.
##DATE=Not specified, most likely prior to 1970
##CAS REGISTRY NO=142-28-9
##MOLFORM=C3 H6 Cl2
##SOURCE REFERENCE=COBLENTZ NO. 4480
##$NIST SOURCE=COBLENTZ
##$NIST IMAGE=cob4480
##SPECTROMETER/DATA SYSTEM=Not specified, most likely a prism, grating, or hybrid spectrometer.
##PATH LENGTH=0.0025 CM
##SAMPLING PROCEDURE=TRANSMISSION
##RESOLUTION=4
##DATA PROCESSING=DIGITIZED BY NIST FROM HARD COPY
##XUNITS=MICROMETERS
##YUNITS=TRANSMITTANCE
##XFACTOR=1.000000
##YFACTOR=1
##DELTAX=000.017557
##FIRSTX=14.527
##LASTX=38
##FIRSTY=0.012
##MAXX=38
##MINX=14.527
##MAXY=0.862
##MINY=0
##NPOINTS=1338
##XYDATA=(X++(Y..Y))
14.527000 0.0120 0.0120 0.0120 0.0120 0.0100
14.614849 0.0080 0.0070 0.0030 0.0030 0.0010
14.702000 0.0010 0.0010 0.0010 0.0010 0.0000
14.789849 0.0000 0.0000 0.0000 0.0010 0.0030
14.878000 0.0030 0.0030 0.0030 0.0030 0.0050
14.965849 0.0050 0.0050 0.0050 0.0050 0.0030
15.053000 0.0030 0.0030 0.0030 0.0030 0.0030
15.140849 0.0030 0.0010 0.0010 0.0010 0.0010
15.229000 0.0010 0.0010 0.0010 0.0010 0.0010
15.316849 0.0010 0.0010 0.0010 0.0010 0.0010
15.405000 0.0010 0.0010 0.0010 0.0010 0.0010
15.492849 0.0010 0.0010 0.0010 0.0010 0.0030
15.580000 0.0030 0.0030 0.0030 0.0050 0.0050
15.667849 0.0050 0.0050 0.0050 0.0050 0.0050
15.756000 0.0070 0.0070 0.0070 0.0070 0.0080
15.843849 0.0080 0.0100 0.0120 0.0140 0.0190
15.931000 0.0250 0.0280 0.0320 0.0460 0.0570
16.018849 0.0690 0.0910 0.0960 0.1030 0.1250
16.107000 0.1460 0.1620 0.1750 0.1980 0.2050
16.194849 0.2230 0.2460 0.2580 0.2800 0.3000
16.282000 0.3170 0.3390 0.3530 0.3690 0.3820
16.369849 0.4000 0.4120 0.4280 0.4390 0.4500
16.458000 0.4600 0.4690 0.4820 0.4920 0.5120
16.545849 0.5170 0.5210 0.5320 0.5420 0.5500
16.634000 0.5550 0.5620 0.5690 0.5760 0.5830
16.721849 0.6000 0.6010 0.6100 0.6160 0.6230
16.809000 0.6280 0.6350 0.6370 0.6410 0.6500
16.896849 0.6530 0.6550 0.6580 0.6620 0.6660
16.985000 0.6690 0.6730 0.6800 0.6830 0.6850
17.072849 0.6960 0.6980 0.7010 0.7010 0.7070
17.160000 0.7120 0.7160 0.7190 0.7300 0.7330
17.247849 0.7350 0.7390 0.7420 0.7480 0.7500
17.336000 0.7500 0.7510 0.7510 0.7570 0.7580
17.423849 0.7600 0.7600 0.7620 0.7640 0.7660
17.511000 0.7670 0.7670 0.7690 0.7690 0.7710
17.598849 0.7730 0.7750 0.7750 0.7760 0.7760
17.687000 0.7780 0.7800 0.7820 0.7820 0.7820
17.774849 0.7830 0.7870 0.7920 0.7940 0.7960
17.862000 0.7980 0.8010 0.8030 0.8050 0.8070
17.949849 0.8080 0.8120 0.8140 0.8170 0.8170
18.038000 0.8190 0.8190 0.8230 0.8230 0.8260
18.125849 0.8300 0.8320 0.8320 0.8330 0.8350
18.214000 0.8350 0.8370 0.8370 0.8370 0.8370
18.301849 0.8390 0.8390 0.8420 0.8420 0.8420
18.389000 0.8440 0.8440 0.8460 0.8460 0.8460
18.476849 0.8460 0.8480 0.8480 0.8500 0.8500
18.565000 0.8500 0.8500 0.8510 0.8510 0.8510
18.652849 0.8510 0.8510 0.8510 0.8510 0.8500
18.740000 0.8500 0.8500 0.8480 0.8460 0.8460
18.827849 0.8460 0.8440 0.8440 0.8440 0.8440
18.916000 0.8420 0.8420 0.8420 0.8420 0.8420
19.003849 0.8420 0.8440 0.8460 0.8480 0.8480
19.091000 0.8480 0.8500 0.8500 0.8510 0.8510
19.178849 0.8530 0.8550 0.8550 0.8550 0.8570
19.267000 0.8570 0.8570 0.8580 0.8580 0.8580
19.354849 0.8580 0.8600 0.8600 0.8600 0.8600
19.443000 0.8600 0.8600 0.8600 0.8620 0.8620
19.530849 0.8600 0.8600 0.8600 0.8600 0.8600
19.618000 0.8580 0.8580 0.8580 0.8580 0.8580
19.705849 0.8580 0.8580 0.8570 0.8570 0.8570
19.794000 0.8570 0.8550 0.8550 0.8550 0.8550
19.881849 0.8530 0.8530 0.8530 0.8530 0.8510
19.969000 0.8510 0.8510 0.8500 0.8500 0.8480
20.056849 0.8480 0.8480 0.8480 0.8460 0.8460
20.145000 0.8440 0.8440 0.8420 0.8410 0.8410
20.232849 0.8410 0.8390 0.8370 0.8370 0.8370
20.320000 0.8350 0.8320 0.8320 0.8300 0.8280
20.407849 0.8260 0.8250 0.8230 0.8190 0.8170
20.496000 0.8140 0.8100 0.8080 0.8070 0.8010
20.583849 0.7980 0.7960 0.7920 0.7910 0.7870
20.672000 0.7800 0.7780 0.7750 0.7710 0.7660
20.759849 0.7600 0.7530 0.7510 0.7500 0.7500
20.847000 0.7480 0.7460 0.7440 0.7410 0.7390
20.934849 0.7370 0.7350 0.7330 0.7320 0.7280
21.023000 0.7260 0.7250 0.7210 0.7170 0.7120
21.110849 0.7080 0.7010 0.7010 0.7000 0.6920
21.198000 0.6870 0.6830 0.6800 0.6760 0.6670
21.285849 0.6620 0.6580 0.6510 0.6480 0.6370
21.374000 0.6330 0.6260 0.6190 0.6160 0.6050
21.461849 0.6010 0.5920 0.5830 0.5750 0.5690
21.549000 0.5640 0.5620 0.5550 0.5530 0.5510
21.636849 0.5440 0.5410 0.5390 0.5370 0.5370
21.725000 0.5350 0.5350 0.5350 0.5350 0.5350
21.812849 0.5350 0.5350 0.5350 0.5370 0.5370
21.901000 0.5390 0.5410 0.5440 0.5480 0.5500
21.988849 0.5530 0.5600 0.5620 0.5660 0.5670
22.076000 0.5710 0.5750 0.5760 0.5820 0.5850
22.163849 0.5870 0.5890 0.5920 0.5960 0.5980
22.252000 0.5980 0.5980 0.5980 0.5980 0.5960
22.339849 0.5940 0.5920 0.5910 0.5870 0.5820
22.427000 0.5800 0.5750 0.5670 0.5600 0.5530
22.514849 0.5480 0.5410 0.5300 0.5230 0.5120
22.603000 0.5030 0.4980 0.4910 0.4750 0.4600
22.690849 0.4460 0.4260 0.4160 0.3960 0.3710
22.778000 0.3500 0.3280 0.3030 0.2800 0.2620
22.865849 0.2440 0.2070 0.1960 0.1670 0.1530
22.954000 0.1320 0.1100 0.0960 0.0800 0.0730
23.041849 0.0660 0.0580 0.0510 0.0420 0.0330
23.129000 0.0280 0.0260 0.0250 0.0250 0.0250
23.216849 0.0260 0.0280 0.0300 0.0320 0.0330
23.305000 0.0370 0.0480 0.0550 0.0730 0.0910
23.392849 0.1030 0.1190 0.1350 0.1550 0.1780
23.481000 0.2030 0.2320 0.2580 0.2890 0.3030
23.568849 0.3300 0.3530 0.3800 0.4030 0.4300
23.656000 0.4510 0.4710 0.4870 0.5230 0.5390
23.743849 0.5510 0.5690 0.5850 0.6030 0.6190
23.832000 0.6320 0.6410 0.6510 0.6640 0.6750
23.919849 0.6820 0.6890 0.6960 0.7030 0.7100
24.007000 0.7170 0.7250 0.7280 0.7370 0.7480
24.094849 0.7500 0.7530 0.7570 0.7600 0.7640
24.183000 0.7670 0.7710 0.7760 0.7820 0.7890
24.270849 0.7910 0.7940 0.7960 0.7960 0.8000
24.358000 0.8010 0.8050 0.8070 0.8120 0.8160
24.445849 0.8170 0.8190 0.8210 0.8230 0.8250
24.534000 0.8250 0.8260 0.8280 0.8300 0.8300
24.621849 0.8320 0.8320 0.8330 0.8350 0.8390
24.710000 0.8410 0.8410 0.8410 0.8420 0.8420
24.797849 0.8440 0.8460 0.8460 0.8460 0.8460
24.885000 0.8480 0.8480 0.8480 0.8480 0.8500
24.972849 0.8500 0.8500 0.8500 0.8500 0.8500
25.061000 0.8500 0.8500 0.8500 0.8480 0.8480
25.148849 0.8480 0.8460 0.8460 0.8460 0.8440
25.236000 0.8440 0.8420 0.8420 0.8420 0.8410
25.323849 0.8390 0.8390 0.8390 0.8370 0.8370
25.412000 0.8350 0.8330 0.8330 0.8330 0.8320
25.499849 0.8320 0.8300 0.8300 0.8280 0.8260
25.587000 0.8260 0.8250 0.8250 0.8230 0.8190
25.674849 0.8170 0.8170 0.8160 0.8160 0.8140
25.763000 0.8120 0.8100 0.8070 0.8050 0.8050
25.850849 0.8010 0.8010 0.7980 0.7980 0.7980
25.939000 0.7960 0.7940 0.7910 0.7870 0.7830
26.026849 0.7800 0.7780 0.7760 0.7730 0.7690
26.114000 0.7660 0.7640 0.7600 0.7580 0.7570
26.201849 0.7510 0.7500 0.7410 0.7320 0.7260
26.290000 0.7230 0.7170 0.7120 0.7070 0.7000
26.377849 0.6850 0.6760 0.6660 0.6530 0.6500
26.465000 0.6330 0.6190 0.6050 0.5920 0.5800
26.552849 0.5660 0.5500 0.5330 0.5190 0.5030
26.641000 0.5000 0.4960 0.4800 0.4660 0.4510
26.728849 0.4390 0.4280 0.4140 0.4010 0.4000
26.816000 0.3910 0.3870 0.3800 0.3760 0.3760
26.903849 0.3750 0.3750 0.3750 0.3760 0.3800
26.992000 0.3850 0.3920 0.4000 0.4050 0.4140
27.079849 0.4210 0.4280 0.4350 0.4420 0.4500
27.168000 0.4510 0.4550 0.4640 0.4690 0.4760
27.255849 0.4820 0.4850 0.4890 0.4910 0.4940
27.343000 0.4960 0.4980 0.4980 0.4960 0.4960
27.430849 0.4940 0.4920 0.4910 0.4890 0.4870
27.519000 0.4830 0.4820 0.4780 0.4760 0.4730
27.606849 0.4690 0.4660 0.4620 0.4580 0.4570
27.694000 0.4500 0.4410 0.4350 0.4320 0.4300
27.781849 0.4250 0.4190 0.4160 0.4100 0.4070
27.870000 0.4010 0.4000 0.3920 0.3870 0.3800
27.957849 0.3760 0.3710 0.3660 0.3600 0.3530
28.045000 0.3480 0.3460 0.3440 0.3410 0.3350
28.132849 0.3330 0.3300 0.3280 0.3250 0.3230
28.221000 0.3190 0.3170 0.3120 0.3080 0.3080
28.308849 0.3070 0.3050 0.3050 0.3030 0.3010
28.396000 0.3010 0.3000 0.3000 0.3000 0.3000
28.483849 0.3000 0.3000 0.3000 0.3000 0.3010
28.572000 0.3010 0.3030 0.3030 0.3050 0.3050
28.659849 0.3070 0.3080 0.3100 0.3120 0.3140
28.748000 0.3170 0.3190 0.3210 0.3230 0.3260
28.835849 0.3300 0.3330 0.3370 0.3410 0.3480
28.923000 0.3510 0.3570 0.3600 0.3670 0.3780
29.010849 0.3890 0.4000 0.4030 0.4070 0.4080
29.099000 0.4120 0.4160 0.4210 0.4260 0.4300
29.186849 0.4350 0.4410 0.4500 0.4550 0.4660
29.274000 0.4760 0.4830 0.4890 0.5010 0.5030
29.361849 0.5080 0.5120 0.5160 0.5210 0.5260
29.450000 0.5300 0.5350 0.5390 0.5440 0.5500
29.537849 0.5550 0.5580 0.5660 0.5730 0.5800
29.625000 0.5850 0.5910 0.6000 0.6010 0.6030
29.712849 0.6080 0.6120 0.6160 0.6190 0.6230
29.801000 0.6250 0.6280 0.6320 0.6370 0.6390
29.888849 0.6420 0.6500 0.6510 0.6530 0.6600
29.977000 0.6660 0.6710 0.6750 0.6780 0.6800
30.064849 0.6800 0.6830 0.6850 0.6850 0.6890
30.152000 0.6920 0.6980 0.7000 0.7000 0.7010
30.239849 0.7030 0.7050 0.7070 0.7100 0.7120
30.328000 0.7160 0.7160 0.7170 0.7190 0.7210
30.415849 0.7230 0.7250 0.7260 0.7300 0.7320
30.503000 0.7330 0.7350 0.7370 0.7370 0.7390
30.590849 0.7410 0.7410 0.7420 0.7440 0.7440
30.679000 0.7460 0.7480 0.7480 0.7500 0.7500
30.766849 0.7510 0.7530 0.7550 0.7570 0.7580
30.854000 0.7580 0.7600 0.7600 0.7600 0.7600
30.941849 0.7600 0.7600 0.7620 0.7620 0.7620
31.030000 0.7640 0.7640 0.7640 0.7660 0.7660
31.117849 0.7660 0.7660 0.7670 0.7670 0.7690
31.206000 0.7710 0.7710 0.7710 0.7710 0.7710
31.293849 0.7710 0.7710 0.7730 0.7730 0.7730
31.381000 0.7750 0.7750 0.7750 0.7750 0.7750
31.468849 0.7750 0.7750 0.7730 0.7730 0.7730
31.557000 0.7730 0.7730 0.7730 0.7730 0.7730
31.644849 0.7710 0.7710 0.7710 0.7710 0.7710
31.732000 0.7710 0.7710 0.7710 0.7710 0.7690
31.819849 0.7690 0.7690 0.7690 0.7690 0.7690
31.908000 0.7690 0.7690 0.7670 0.7670 0.7670
31.995849 0.7670 0.7670 0.7670 0.7660 0.7640
32.083000 0.7600 0.7600 0.7580 0.7580 0.7580
32.170849 0.7580 0.7580 0.7580 0.7570 0.7570
32.259000 0.7570 0.7570 0.7550 0.7550 0.7530
32.346849 0.7510 0.7500 0.7500 0.7500 0.7480
32.435000 0.7480 0.7460 0.7460 0.7440 0.7440
32.522849 0.7420 0.7420 0.7410 0.7410 0.7390
32.610000 0.7370 0.7350 0.7350 0.7330 0.7330
32.697849 0.7320 0.7320 0.7320 0.7300 0.7300
32.786000 0.7300 0.7300 0.7280 0.7260 0.7250
32.873849 0.7210 0.7190 0.7170 0.7140 0.7140
32.961000 0.7100 0.7080 0.7050 0.7010 0.7000
33.048849 0.7000 0.6980 0.6910 0.6870 0.6830
33.137000 0.6820 0.6780 0.6760 0.6750 0.6750
33.224849 0.6730 0.6730 0.6710 0.6690 0.6670
33.312000 0.6670 0.6660 0.6660 0.6660 0.6640
33.399849 0.6620 0.6600 0.6580 0.6580 0.6580
33.488000 0.6580 0.6580 0.6580 0.6580 0.6580
33.575849 0.6570 0.6570 0.6570 0.6550 0.6510
33.663000 0.6510 0.6500 0.6500 0.6480 0.6480
33.750849 0.6480 0.6460 0.6460 0.6440 0.6420
33.839000 0.6420 0.6410 0.6410 0.6410 0.6410
33.926849 0.6410 0.6410 0.6410 0.6410 0.6410
34.015000 0.6410 0.6390 0.6370 0.6370 0.6370
34.102849 0.6370 0.6370 0.6350 0.6350 0.6330
34.190000 0.6330 0.6320 0.6320 0.6320 0.6320
34.277849 0.6320 0.6300 0.6300 0.6280 0.6280
34.366000 0.6280 0.6260 0.6260 0.6250 0.6250
34.453849 0.6250 0.6250 0.6250 0.6230 0.6190
34.541000 0.6190 0.6170 0.6170 0.6160 0.6160
34.628849 0.6140 0.6120 0.6080 0.6050 0.6010
34.717000 0.6010 0.6000 0.5980 0.5920 0.5910
34.804849 0.5910 0.5890 0.5850 0.5830 0.5820
34.892000 0.5820 0.5800 0.5780 0.5780 0.5760
34.979849 0.5730 0.5710 0.5690 0.5660 0.5640
35.068000 0.5620 0.5600 0.5580 0.5580 0.5570
35.155849 0.5530 0.5510 0.5500 0.5500 0.5480
35.244000 0.5460 0.5440 0.5410 0.5370 0.5330
35.331849 0.5320 0.5300 0.5260 0.5230 0.5210
35.419000 0.5140 0.5120 0.5080 0.5070 0.5030
35.506849 0.5000 0.4980 0.4940 0.4890 0.4870
35.595000 0.4850 0.4830 0.4820 0.4800 0.4780
35.682849 0.4750 0.4730 0.4710 0.4690 0.4690
35.770000 0.4670 0.4670 0.4660 0.4660 0.4660
35.857849 0.4640 0.4620 0.4530 0.4510 0.4480
35.946000 0.4410 0.4370 0.4350 0.4320 0.4300
36.033849 0.4260 0.4230 0.4210 0.4190 0.4170
36.121000 0.4120 0.4100 0.4100 0.4080 0.4080
36.208849 0.4070 0.4050 0.4050 0.4030 0.4010
36.297000 0.3980 0.3960 0.3920 0.3910 0.3850
36.384849 0.3830 0.3830 0.3820 0.3800 0.3800
36.473000 0.3780 0.3780 0.3760 0.3750 0.3730
36.560849 0.3710 0.3690 0.3670 0.3640 0.3640
36.648000 0.3620 0.3620 0.3600 0.3600 0.3600
36.735849 0.3580 0.3570 0.3550 0.3550 0.3550
36.824000 0.3530 0.3530 0.3510 0.3510 0.3510
36.911849 0.3510 0.3510 0.3510 0.3510 0.3510
36.999000 0.3500 0.3500 0.3480 0.3460 0.3440
37.086849 0.3440 0.3420 0.3420 0.3420 0.3420
37.175000 0.3420 0.3420 0.3420 0.3440 0.3440
37.262849 0.3460 0.3480 0.3480 0.3500 0.3510
37.350000 0.3530 0.3570 0.3600 0.3620 0.3640
37.437849 0.3670 0.3690 0.3690 0.3710 0.3710
37.526000 0.3710 0.3730 0.3730 0.3730 0.3750
37.613849 0.3760 0.3780 0.3780 0.3800 0.3820
37.702000 0.3830 0.3850 0.3870 0.3890 0.3920
37.789849 0.3940 0.3940 0.3920 0.3920 0.3910
37.877000 0.3910 0.3910 0.3920 0.3920 0.3920
37.964849 0.3940 0.3960 0.3980
##END=
