##TITLE=Alpha-IODO ACETAMIDE
$$ GREAT WESTERN
##JCAMP-DX=4.24
##DATA TYPE=INFRARED SPECTRUM
##CLASS=COBLENTZ
##ORIGIN=DOW CHEMICAL COMPANY
##OWNER=COBLENTZ SOCIETY
Collection (C) 2018 copyright by the U.S. Secretary of Commerce
on behalf of the United States of America. All rights reserved.
##DATE=Not specified, most likely prior to 1970
##NAMES=2-iodoacetamide
##CAS REGISTRY NO=144-48-9
##MOLFORM=C2 H4 I N O
##SOURCE REFERENCE=COBLENTZ NO. 1827
##$NIST SOURCE=COBLENTZ
##$NIST IMAGE=cob1827
##SPECTROMETER/DATA SYSTEM=Not specified, most likely a prism, grating, or hybrid spectrometer.
##STATE=SOLID (MINERAL OIL MULL)
##PATH LENGTH=
$$SPECTRAL CONTAMINATION DUE TO OIL AROUND 2900 CM^-^1
##SAMPLING PROCEDURE=TRANSMISSION
##RESOLUTION=4
##DATA PROCESSING=DIGITIZED BY NIST FROM HARD COPY
##XUNITS=MICROMETERS
##YUNITS=TRANSMITTANCE
##XFACTOR=1.000000
##YFACTOR=1
##DELTAX=000.006836
##FIRSTX=2.041
##LASTX=15.9795
##FIRSTY=0.608
##MAXX=15.9795
##MINX=2.041
##MAXY=0.934
##MINY=0.094
##NPOINTS=2040
##XYDATA=(X++(Y..Y))
2.041000 0.6080 0.6080 0.6090 0.6090 0.6130
2.075196 0.6150 0.6160 0.6180 0.6200 0.6200
2.109000 0.6230 0.6230 0.6250 0.6270 0.6270
2.143196 0.6300 0.6300 0.6320 0.6320 0.6340
2.178000 0.6340 0.6350 0.6370 0.6370 0.6370
2.212196 0.6370 0.6370 0.6370 0.6370 0.6370
2.246000 0.6370 0.6390 0.6390 0.6390 0.6390
2.280196 0.6400 0.6400 0.6420 0.6440 0.6440
2.314000 0.6460 0.6460 0.6470 0.6510 0.6510
2.348196 0.6520 0.6540 0.6540 0.6560 0.6580
2.383000 0.6580 0.6590 0.6610 0.6630 0.6660
2.417196 0.6680 0.6700 0.6710 0.6730 0.6750
2.451000 0.6760 0.6780 0.6800 0.6820 0.6830
2.485196 0.6830 0.6850 0.6870 0.6890 0.6890
2.520000 0.6920 0.6940 0.6950 0.6970 0.6970
2.554196 0.6990 0.7010 0.7020 0.7040 0.7040
2.588000 0.7070 0.7090 0.7110 0.7130 0.7140
2.622196 0.7160 0.7180 0.7190 0.7210 0.7210
2.656000 0.7230 0.7250 0.7280 0.7300 0.7330
2.690196 0.7330 0.7350 0.7380 0.7400 0.7400
2.725000 0.7400 0.7400 0.7400 0.7400 0.7400
2.759196 0.7420 0.7420 0.7450 0.7470 0.7490
2.793000 0.7500 0.7540 0.7570 0.7590 0.7590
2.827196 0.7590 0.7590 0.7590 0.7540 0.7470
2.861000 0.7370 0.7230 0.7020 0.6870 0.6610
2.895196 0.6320 0.5960 0.5610 0.5250 0.4870
2.930000 0.4460 0.4240 0.3930 0.3720 0.3710
2.964196 0.3710 0.3720 0.3860 0.4020 0.4120
2.998000 0.4220 0.4310 0.4390 0.4460 0.4480
3.032196 0.4510 0.4530 0.4550 0.4600 0.4600
3.066000 0.4600 0.4600 0.4580 0.4550 0.4480
3.100196 0.4380 0.4200 0.4000 0.3980 0.3980
3.135000 0.4000 0.4030 0.4100 0.4190 0.4320
3.169196 0.4460 0.4620 0.4740 0.5000 0.5220
3.203000 0.5320 0.5370 0.5460 0.5510 0.5540
3.237196 0.5580 0.5600 0.5650 0.5670 0.5670
3.271000 0.5630 0.5600 0.5560 0.5480 0.5410
3.305196 0.5360 0.5300 0.5180 0.5010 0.4770
3.340000 0.4430 0.3860 0.3120 0.2810 0.2490
3.374196 0.1400 0.1150 0.0970 0.0940 0.0960
3.408000 0.1040 0.1200 0.1350 0.1510 0.1750
3.442196 0.2010 0.2280 0.2420 0.2450 0.2470
3.477000 0.2490 0.2520 0.2930 0.3400 0.4510
3.511196 0.5440 0.6030 0.6490 0.6660 0.6780
3.545000 0.6870 0.6970 0.7060 0.7160 0.7260
3.579196 0.7310 0.7330 0.7380 0.7400 0.7400
3.613000 0.7400 0.7380 0.7380 0.7350 0.7330
3.647196 0.7330 0.7350 0.7380 0.7420 0.7450
3.682000 0.7500 0.7520 0.7540 0.7560 0.7560
3.716196 0.7590 0.7610 0.7610 0.7620 0.7620
3.750000 0.7620 0.7640 0.7640 0.7680 0.7690
3.784196 0.7710 0.7740 0.7740 0.7760 0.7760
3.818000 0.7800 0.7810 0.7810 0.7830 0.7850
3.852196 0.7850 0.7860 0.7880 0.7880 0.7880
3.887000 0.7880 0.7880 0.7880 0.7880 0.7900
3.921196 0.7920 0.7950 0.7980 0.8000 0.8020
3.955000 0.8020 0.8040 0.8040 0.8050 0.8050
3.989196 0.8070 0.8070 0.8090 0.8100 0.8100
4.023000 0.8100 0.8100 0.8120 0.8120 0.8120
4.057196 0.8140 0.8140 0.8140 0.8160 0.8160
4.092000 0.8160 0.8170 0.8170 0.8170 0.8170
4.126196 0.8170 0.8170 0.8170 0.8170 0.8170
4.160000 0.8160 0.8160 0.8140 0.8140 0.8120
4.194196 0.8120 0.8140 0.8140 0.8170 0.8170
4.229000 0.8210 0.8240 0.8280 0.8290 0.8310
4.263196 0.8310 0.8330 0.8330 0.8350 0.8350
4.297000 0.8360 0.8360 0.8360 0.8360 0.8360
4.331196 0.8360 0.8360 0.8360 0.8360 0.8360
4.365000 0.8360 0.8360 0.8360 0.8380 0.8380
4.399196 0.8380 0.8380 0.8380 0.8380 0.8400
4.434000 0.8400 0.8400 0.8400 0.8400 0.8400
4.468196 0.8410 0.8430 0.8450 0.8450 0.8470
4.502000 0.8470 0.8480 0.8480 0.8500 0.8500
4.536196 0.8520 0.8520 0.8520 0.8520 0.8530
4.570000 0.8530 0.8530 0.8530 0.8530 0.8550
4.604196 0.8550 0.8550 0.8570 0.8570 0.8570
4.639000 0.8570 0.8590 0.8590 0.8590 0.8590
4.673196 0.8600 0.8600 0.8620 0.8620 0.8640
4.707000 0.8640 0.8640 0.8640 0.8640 0.8640
4.741196 0.8640 0.8640 0.8640 0.8640 0.8640
4.775000 0.8640 0.8640 0.8640 0.8650 0.8650
4.809196 0.8650 0.8650 0.8670 0.8670 0.8670
4.844000 0.8670 0.8690 0.8670 0.8670 0.8670
4.878196 0.8670 0.8670 0.8670 0.8670 0.8690
4.912000 0.8690 0.8710 0.8710 0.8720 0.8720
4.946196 0.8720 0.8710 0.8710 0.8710 0.8710
4.980000 0.8710 0.8720 0.8720 0.8720 0.8740
5.014196 0.8740 0.8740 0.8760 0.8790 0.8810
5.049000 0.8810 0.8810 0.8830 0.8830 0.8830
5.083196 0.8840 0.8840 0.8840 0.8860 0.8860
5.117000 0.8860 0.8860 0.8860 0.8860 0.8860
5.151196 0.8860 0.8860 0.8860 0.8860 0.8880
5.186000 0.8880 0.8880 0.8880 0.8900 0.8900
5.220196 0.8910 0.8910 0.8910 0.8910 0.8910
5.254000 0.8910 0.8910 0.8910 0.8910 0.8910
5.288196 0.8910 0.8910 0.8910 0.8910 0.8910
5.322000 0.8910 0.8930 0.8930 0.8930 0.8930
5.356196 0.8930 0.8930 0.8930 0.8930 0.8930
5.391000 0.8930 0.8950 0.8950 0.8950 0.8950
5.425196 0.8960 0.8960 0.8960 0.8960 0.8960
5.459000 0.8960 0.8960 0.8960 0.8960 0.8960
5.493196 0.8960 0.8960 0.8950 0.8930 0.8900
5.527000 0.8900 0.8900 0.8880 0.8860 0.8860
5.561196 0.8840 0.8830 0.8810 0.8790 0.8710
5.596000 0.8620 0.8550 0.8470 0.8410 0.8410
5.630196 0.8450 0.8530 0.8590 0.8620 0.8670
5.664000 0.8670 0.8670 0.8670 0.8620 0.8600
5.698196 0.8570 0.8530 0.8520 0.8500 0.8500
5.732000 0.8500 0.8480 0.8480 0.8470 0.8400
5.766196 0.8350 0.8310 0.8290 0.8280 0.8240
5.801000 0.8140 0.8050 0.8000 0.7970 0.7930
5.835196 0.7880 0.7780 0.7710 0.7640 0.7560
5.869000 0.7430 0.7260 0.7090 0.6900 0.6710
5.903196 0.6510 0.6320 0.6150 0.5800 0.5420
5.938000 0.5050 0.4650 0.4290 0.3950 0.3650
5.972196 0.3400 0.3190 0.3050 0.2830 0.2500
6.006000 0.2350 0.2260 0.2180 0.2160 0.2130
6.040196 0.2110 0.2110 0.2210 0.2350 0.2520
6.074000 0.2660 0.2780 0.2930 0.3100 0.3330
6.108196 0.3530 0.3690 0.3830 0.3910 0.3980
6.143000 0.4000 0.4000 0.4000 0.3980 0.3910
6.177196 0.3790 0.3710 0.3710 0.3690 0.3670
6.211000 0.3690 0.3880 0.3950 0.4170 0.4390
6.245196 0.4530 0.4740 0.4940 0.5080 0.5220
6.279000 0.5340 0.5390 0.5480 0.5530 0.5630
6.313196 0.5720 0.5770 0.5840 0.5890 0.5970
6.348000 0.6090 0.6250 0.6340 0.6400 0.6460
6.382196 0.6510 0.6580 0.6660 0.6750 0.6850
6.416000 0.6940 0.7040 0.7110 0.7180 0.7190
6.450196 0.7210 0.7230 0.7250 0.7280 0.7330
6.484000 0.7400 0.7490 0.7520 0.7560 0.7570
6.518196 0.7590 0.7610 0.7610 0.7610 0.7610
6.553000 0.7610 0.7610 0.7620 0.7640 0.7660
6.587196 0.7690 0.7710 0.7730 0.7730 0.7740
6.621000 0.7760 0.7780 0.7780 0.7780 0.7800
6.655196 0.7800 0.7800 0.7780 0.7760 0.7730
6.689000 0.7680 0.7590 0.7430 0.7310 0.7190
6.723196 0.7090 0.6950 0.6830 0.6680 0.6490
6.758000 0.6280 0.6030 0.5720 0.5480 0.5240
6.792196 0.5030 0.4820 0.4690 0.4580 0.4500
6.826000 0.4460 0.4450 0.4460 0.4480 0.4510
6.860196 0.4570 0.4570 0.4570 0.4510 0.4410
6.895000 0.4140 0.3840 0.3670 0.3470 0.3310
6.929196 0.3290 0.3290 0.3330 0.3650 0.4030
6.963000 0.4670 0.5360 0.5750 0.5840 0.6030
6.997196 0.6270 0.6540 0.6780 0.6950 0.6990
7.031000 0.7130 0.7230 0.7300 0.7330 0.7370
7.065196 0.7370 0.7350 0.7330 0.7310 0.7300
7.100000 0.7280 0.7260 0.7190 0.7130 0.6990
7.134196 0.6800 0.6610 0.6320 0.5960 0.5540
7.168000 0.5120 0.4740 0.4390 0.4150 0.4030
7.202196 0.3810 0.3790 0.3780 0.3790 0.3910
7.236000 0.4030 0.4150 0.4340 0.4550 0.4840
7.270196 0.5200 0.5510 0.5610 0.5890 0.5990
7.305000 0.6110 0.6250 0.6400 0.6560 0.6710
7.339196 0.6830 0.6920 0.6970 0.6990 0.7020
7.373000 0.7060 0.7110 0.7160 0.7190 0.7210
7.407196 0.7210 0.7250 0.7260 0.7260 0.7280
7.441000 0.7280 0.7310 0.7370 0.7380 0.7400
7.475196 0.7430 0.7470 0.7470 0.7490 0.7500
7.510000 0.7500 0.7520 0.7520 0.7540 0.7540
7.544196 0.7540 0.7540 0.7540 0.7540 0.7520
7.578000 0.7520 0.7520 0.7520 0.7520 0.7500
7.612196 0.7500 0.7500 0.7500 0.7500 0.7500
7.646000 0.7500 0.7500 0.7500 0.7500 0.7520
7.680196 0.7540 0.7540 0.7560 0.7560 0.7570
7.715000 0.7570 0.7570 0.7570 0.7590 0.7590
7.749196 0.7610 0.7610 0.7610 0.7610 0.7610
7.783000 0.7610 0.7610 0.7590 0.7590 0.7590
7.817196 0.7590 0.7590 0.7570 0.7560 0.7540
7.852000 0.7500 0.7490 0.7470 0.7430 0.7420
7.886196 0.7420 0.7430 0.7470 0.7490 0.7520
7.920000 0.7590 0.7640 0.7660 0.7680 0.7710
7.954196 0.7760 0.7810 0.7860 0.7880 0.7880
7.988000 0.7880 0.7850 0.7830 0.7780 0.7760
8.022196 0.7760 0.7800 0.7810 0.7830 0.7830
8.057000 0.7850 0.7850 0.7850 0.7860 0.7860
8.091196 0.7880 0.7880 0.7880 0.7900 0.7900
8.125000 0.7900 0.7920 0.7920 0.7930 0.7930
8.159196 0.7950 0.7970 0.7970 0.7980 0.8000
8.193000 0.8020 0.8040 0.8040 0.8040 0.8040
8.227196 0.8040 0.8050 0.8050 0.8050 0.8050
8.262000 0.8050 0.8050 0.8050 0.8050 0.8050
8.296196 0.8050 0.8050 0.8050 0.8050 0.8050
8.330000 0.8050 0.8050 0.8070 0.8070 0.8070
8.364196 0.8070 0.8070 0.8070 0.8070 0.8090
8.398000 0.8090 0.8070 0.8040 0.7980 0.7950
8.432196 0.7930 0.7830 0.7730 0.7620 0.7520
8.467000 0.7420 0.7250 0.7070 0.6890 0.6660
8.501196 0.6470 0.6300 0.6150 0.6090 0.6090
8.535000 0.6090 0.6180 0.6340 0.6580 0.6730
8.569196 0.6890 0.6990 0.7070 0.7090 0.7090
8.604000 0.7070 0.6940 0.6730 0.6540 0.6340
8.638196 0.6200 0.6130 0.6030 0.5970 0.5970
8.672000 0.6060 0.6130 0.6250 0.6660 0.6760
8.706196 0.6940 0.7090 0.7300 0.7450 0.7520
8.740000 0.7620 0.7730 0.7800 0.7830 0.7880
8.774196 0.7900 0.7930 0.7950 0.7970 0.7980
8.809000 0.8000 0.8020 0.8040 0.8070 0.8090
8.843196 0.8100 0.8120 0.8140 0.8140 0.8160
8.877000 0.8170 0.8190 0.8210 0.8210 0.8210
8.911196 0.8210 0.8210 0.8210 0.8210 0.8210
8.945000 0.8190 0.8190 0.8190 0.8190 0.8190
8.979196 0.8190 0.8190 0.8190 0.8160 0.8160
9.014000 0.8140 0.8140 0.8120 0.8120 0.8100
9.048196 0.8070 0.8070 0.8070 0.8070 0.8050
9.082000 0.8050 0.8050 0.8050 0.8050 0.8050
9.116196 0.8070 0.8090 0.8100 0.8100 0.8100
9.150000 0.8100 0.8090 0.8070 0.8020 0.7970
9.184196 0.7920 0.7800 0.7690 0.7590 0.7450
9.219000 0.7330 0.7280 0.7250 0.7230 0.7230
9.253196 0.7250 0.7310 0.7370 0.7490 0.7570
9.287000 0.7690 0.7780 0.7850 0.7920 0.8000
9.321196 0.8070 0.8100 0.8120 0.8140 0.8140
9.355000 0.8140 0.8160 0.8160 0.8170 0.8190
9.389196 0.8190 0.8230 0.8230 0.8290 0.8330
9.424000 0.8360 0.8360 0.8360 0.8380 0.8380
9.458196 0.8400 0.8410 0.8430 0.8450 0.8450
9.492000 0.8470 0.8480 0.8480 0.8500 0.8500
9.526196 0.8500 0.8520 0.8520 0.8530 0.8530
9.561000 0.8550 0.8600 0.8640 0.8650 0.8650
9.595196 0.8670 0.8670 0.8670 0.8670 0.8670
9.629000 0.8670 0.8670 0.8670 0.8670 0.8670
9.663196 0.8670 0.8670 0.8670 0.8670 0.8670
9.697000 0.8670 0.8670 0.8670 0.8670 0.8670
9.731196 0.8670 0.8670 0.8670 0.8670 0.8690
9.766000 0.8690 0.8710 0.8710 0.8710 0.8720
9.800196 0.8720 0.8720 0.8740 0.8740 0.8740
9.834000 0.8760 0.8760 0.8760 0.8780 0.8780
9.868196 0.8780 0.8790 0.8830 0.8830 0.8840
9.902000 0.8840 0.8840 0.8860 0.8860 0.8880
9.936196 0.8880 0.8880 0.8880 0.8880 0.8880
9.971000 0.8900 0.8900 0.8900 0.8900 0.8910
10.005196 0.8910 0.8910 0.8930 0.8930 0.8930
10.039000 0.8950 0.8950 0.8950 0.8960 0.8960
10.073196 0.8960 0.8960 0.8960 0.8960 0.8960
10.107000 0.8960 0.8960 0.8960 0.8960 0.8960
10.141196 0.8980 0.8980 0.8980 0.9000 0.9000
10.176000 0.9000 0.9000 0.9000 0.9000 0.9000
10.210196 0.9000 0.9000 0.9000 0.9000 0.9000
10.244000 0.9000 0.9000 0.8980 0.8980 0.8980
10.278196 0.8980 0.8980 0.8980 0.8980 0.8980
10.313000 0.8980 0.9000 0.9000 0.9000 0.9000
10.347196 0.9000 0.9000 0.9000 0.9000 0.9000
10.381000 0.9000 0.9020 0.9020 0.9000 0.9000
10.415196 0.9000 0.9000 0.9000 0.9000 0.9000
10.449000 0.9000 0.9020 0.9020 0.9020 0.9020
10.483196 0.9030 0.9030 0.9030 0.9030 0.9030
10.518000 0.9030 0.9030 0.9030 0.9030 0.9030
10.552196 0.9050 0.9050 0.9050 0.9050 0.9050
10.586000 0.9050 0.9050 0.9050 0.9050 0.9050
10.620196 0.9050 0.9050 0.9070 0.9070 0.9070
10.654000 0.9070 0.9070 0.9070 0.9070 0.9070
10.688196 0.9070 0.9070 0.9070 0.9070 0.9070
10.723000 0.9070 0.9070 0.9070 0.9070 0.9070
10.757196 0.9070 0.9070 0.9070 0.9070 0.9070
10.791000 0.9070 0.9080 0.9080 0.9100 0.9120
10.825196 0.9120 0.9120 0.9140 0.9140 0.9140
10.859000 0.9140 0.9140 0.9140 0.9150 0.9150
10.893196 0.9150 0.9150 0.9150 0.9150 0.9140
10.928000 0.9140 0.9140 0.9140 0.9140 0.9140
10.962196 0.9140 0.9140 0.9140 0.9150 0.9150
10.996000 0.9150 0.9150 0.9170 0.9190 0.9190
11.030196 0.9200 0.9200 0.9240 0.9240 0.9240
11.064000 0.9240 0.9240 0.9220 0.9200 0.9190
11.098196 0.9150 0.9120 0.9120 0.9100 0.9050
11.133000 0.8980 0.8900 0.8830 0.8720 0.8640
11.167196 0.8550 0.8450 0.8360 0.8290 0.8230
11.201000 0.8170 0.8140 0.8120 0.8120 0.8170
11.235196 0.8310 0.8430 0.8550 0.8710 0.8810
11.270000 0.8880 0.8930 0.8980 0.9000 0.9020
11.304196 0.9050 0.9070 0.9080 0.9100 0.9120
11.338000 0.9140 0.9140 0.9150 0.9150 0.9150
11.372196 0.9170 0.9200 0.9200 0.9220 0.9240
11.406000 0.9240 0.9240 0.9240 0.9240 0.9260
11.440196 0.9260 0.9290 0.9310 0.9310 0.9320
11.475000 0.9320 0.9340 0.9340 0.9340 0.9340
11.509196 0.9320 0.9310 0.9310 0.9310 0.9310
11.543000 0.9310 0.9310 0.9290 0.9290 0.9270
11.577196 0.9260 0.9240 0.9240 0.9240 0.9240
11.611000 0.9240 0.9240 0.9240 0.9220 0.9200
11.645196 0.9190 0.9150 0.9120 0.9080 0.9070
11.680000 0.9050 0.9000 0.8980 0.8960 0.8930
11.714196 0.8880 0.8860 0.8830 0.8790 0.8780
11.748000 0.8780 0.8780 0.8780 0.8780 0.8780
11.782196 0.8780 0.8780 0.8790 0.8810 0.8860
11.816000 0.8900 0.8930 0.8950 0.8950 0.8960
11.850196 0.8980 0.8980 0.8980 0.8960 0.8960
11.885000 0.8960 0.8960 0.8950 0.8930 0.8910
11.919196 0.8880 0.8880 0.8860 0.8840 0.8840
11.953000 0.8840 0.8830 0.8810 0.8790 0.8790
11.987196 0.8780 0.8760 0.8760 0.8740 0.8720
12.021000 0.8690 0.8670 0.8670 0.8650 0.8650
12.055196 0.8620 0.8570 0.8530 0.8530 0.8520
12.090000 0.8480 0.8450 0.8400 0.8360 0.8350
12.124196 0.8310 0.8290 0.8280 0.8260 0.8210
12.158000 0.8190 0.8140 0.8090 0.8070 0.8050
12.192196 0.8040 0.8000 0.7980 0.7970 0.7950
12.227000 0.7950 0.7930 0.7920 0.7900 0.7880
12.261196 0.7850 0.7850 0.7830 0.7810 0.7810
12.295000 0.7800 0.7780 0.7780 0.7780 0.7780
12.329196 0.7780 0.7780 0.7780 0.7780 0.7780
12.363000 0.7780 0.7800 0.7800 0.7800 0.7800
12.397196 0.7800 0.7800 0.7800 0.7810 0.7810
12.432000 0.7810 0.7850 0.7850 0.7860 0.7860
12.466196 0.7880 0.7880 0.7900 0.7900 0.7930
12.500000 0.7930 0.7950 0.7970 0.7970 0.7980
12.534196 0.7980 0.8000 0.8020 0.8040 0.8050
12.568000 0.8050 0.8070 0.8090 0.8090 0.8100
12.602196 0.8100 0.8120 0.8120 0.8140 0.8140
12.637000 0.8160 0.8160 0.8170 0.8190 0.8230
12.671196 0.8260 0.8280 0.8280 0.8290 0.8310
12.705000 0.8330 0.8350 0.8360 0.8360 0.8380
12.739196 0.8380 0.8380 0.8380 0.8380 0.8380
12.773000 0.8400 0.8410 0.8450 0.8470 0.8470
12.807196 0.8470 0.8470 0.8470 0.8470 0.8470
12.842000 0.8470 0.8470 0.8470 0.8450 0.8450
12.876196 0.8450 0.8430 0.8430 0.8410 0.8400
12.910000 0.8400 0.8400 0.8360 0.8360 0.8350
12.944196 0.8290 0.8260 0.8210 0.8170 0.8160
12.979000 0.8160 0.8140 0.8140 0.8140 0.8140
13.013196 0.8140 0.8120 0.8100 0.8100 0.8090
13.047000 0.8090 0.8090 0.8070 0.8070 0.8070
13.081196 0.8070 0.8070 0.8090 0.8090 0.8090
13.115000 0.8090 0.8100 0.8100 0.8100 0.8100
13.149196 0.8100 0.8090 0.8090 0.8070 0.8050
13.184000 0.8050 0.8020 0.8000 0.7970 0.7950
13.218196 0.7950 0.7930 0.7880 0.7860 0.7800
13.252000 0.7760 0.7710 0.7680 0.7640 0.7590
13.286196 0.7570 0.7540 0.7520 0.7500 0.7470
13.320000 0.7450 0.7420 0.7370 0.7350 0.7280
13.354196 0.7260 0.7190 0.7160 0.7140 0.7090
13.389000 0.7070 0.7010 0.6970 0.6940 0.6920
13.423196 0.6900 0.6890 0.6850 0.6850 0.6830
13.457000 0.6830 0.6830 0.6830 0.6820 0.6820
13.491196 0.6820 0.6820 0.6820 0.6820 0.6820
13.525000 0.6820 0.6820 0.6830 0.6830 0.6850
13.559196 0.6850 0.6870 0.6870 0.6890 0.6900
13.594000 0.6940 0.6970 0.7010 0.7040 0.7060
13.628196 0.7060 0.7090 0.7110 0.7130 0.7130
13.662000 0.7130 0.7140 0.7140 0.7140 0.7140
13.696196 0.7140 0.7140 0.7140 0.7140 0.7140
13.730000 0.7140 0.7140 0.7140 0.7140 0.7140
13.764196 0.7140 0.7130 0.7110 0.7110 0.7110
13.799000 0.7110 0.7090 0.7090 0.7090 0.7070
13.833196 0.7060 0.7060 0.7060 0.7060 0.7060
13.867000 0.7060 0.7060 0.7060 0.7060 0.7060
13.901196 0.7060 0.7060 0.7060 0.7070 0.7070
13.936000 0.7070 0.7070 0.7070 0.7090 0.7090
13.970196 0.7090 0.7090 0.7090 0.7070 0.7070
14.004000 0.7070 0.7070 0.7060 0.7060 0.7040
14.038196 0.7040 0.7020 0.7020 0.7010 0.7010
14.072000 0.6990 0.6970 0.6970 0.6950 0.6940
14.106196 0.6940 0.6920 0.6900 0.6900 0.6890
14.141000 0.6870 0.6850 0.6850 0.6830 0.6820
14.175196 0.6800 0.6800 0.6780 0.6760 0.6750
14.209000 0.6730 0.6730 0.6710 0.6710 0.6700
14.243196 0.6680 0.6660 0.6660 0.6640 0.6630
14.277000 0.6610 0.6590 0.6580 0.6580 0.6560
14.311196 0.6540 0.6520 0.6510 0.6490 0.6470
14.346000 0.6460 0.6440 0.6420 0.6400 0.6390
14.380196 0.6370 0.6350 0.6340 0.6320 0.6300
14.414000 0.6280 0.6270 0.6250 0.6230 0.6210
14.448196 0.6200 0.6200 0.6180 0.6160 0.6150
14.482000 0.6130 0.6110 0.6090 0.6080 0.6040
14.516196 0.6030 0.6010 0.5990 0.5970 0.5960
14.551000 0.5940 0.5920 0.5890 0.5870 0.5840
14.585196 0.5840 0.5820 0.5800 0.5750 0.5730
14.619000 0.5720 0.5700 0.5680 0.5670 0.5670
14.653196 0.5650 0.5630 0.5600 0.5580 0.5540
14.688000 0.5540 0.5510 0.5490 0.5480 0.5460
14.722196 0.5460 0.5440 0.5420 0.5390 0.5370
14.756000 0.5360 0.5340 0.5340 0.5320 0.5300
14.790196 0.5290 0.5270 0.5250 0.5240 0.5240
14.824000 0.5200 0.5200 0.5180 0.5170 0.5170
14.858196 0.5150 0.5120 0.5100 0.5100 0.5100
14.893000 0.5080 0.5080 0.5060 0.5060 0.5050
14.927196 0.5050 0.5030 0.5030 0.5030 0.5000
14.961000 0.5000 0.4980 0.4980 0.4960 0.4960
14.995196 0.4940 0.4930 0.4910 0.4890 0.4860
15.029000 0.4860 0.4840 0.4820 0.4790 0.4770
15.063196 0.4720 0.4700 0.4690 0.4670 0.4650
15.098000 0.4650 0.4630 0.4620 0.4620 0.4620
15.132196 0.4600 0.4600 0.4580 0.4580 0.4570
15.166000 0.4570 0.4550 0.4550 0.4550 0.4530
15.200196 0.4530 0.4510 0.4500 0.4480 0.4480
15.234000 0.4480 0.4480 0.4460 0.4460 0.4460
15.268196 0.4460 0.4450 0.4450 0.4450 0.4450
15.303000 0.4430 0.4430 0.4410 0.4390 0.4380
15.337196 0.4380 0.4360 0.4360 0.4340 0.4340
15.371000 0.4320 0.4310 0.4310 0.4290 0.4270
15.405196 0.4270 0.4270 0.4260 0.4240 0.4220
15.439000 0.4200 0.4200 0.4190 0.4190 0.4190
15.473196 0.4170 0.4170 0.4150 0.4120 0.4120
15.508000 0.4100 0.4100 0.4080 0.4080 0.4050
15.542196 0.4050 0.4030 0.4020 0.4020 0.4020
15.576000 0.4020 0.4020 0.4020 0.4020 0.4020
15.610196 0.4020 0.4000 0.4000 0.3980 0.3980
15.645000 0.3980 0.3960 0.3960 0.3950 0.3950
15.679196 0.3950 0.3950 0.3950 0.3950 0.3950
15.713000 0.3950 0.3950 0.3950 0.3950 0.3950
15.747196 0.3950 0.3930 0.3930 0.3930 0.3930
15.781000 0.3930 0.3930 0.3930 0.3930 0.3930
15.815196 0.3930 0.3950 0.3950 0.3950 0.3950
15.850000 0.3960 0.3960 0.3960 0.3960 0.3960
15.884196 0.3960 0.3960 0.3960 0.3960 0.3960
15.918000 0.3980 0.3980 0.3980 0.3980 0.3980
15.952196 0.3980 0.3980 0.3980 0.3980 0.3980
##END=
