##TITLE=EPIBROMOHYDRIN
##JCAMP-DX=4.24
##DATA TYPE=INFRARED SPECTRUM
##CLASS=COBLENTZ
##ORIGIN=STANDARD OIL OF OHIO
##OWNER=COBLENTZ SOCIETY
Collection (C) 2018 copyright by the U.S. Secretary of Commerce
on behalf of the United States of America. All rights reserved.
##DATE=Not specified, most likely prior to 1970
##NAMES=2-(bromomethyl)oxirane
##CAS REGISTRY NO=3132-64-7
##MOLFORM=C3 H5 Br O
##SOURCE REFERENCE=COBLENTZ NO. 2069
##$NIST SOURCE=COBLENTZ
##$NIST IMAGE=cob2069
##SPECTROMETER/DATA SYSTEM=PERKIN-ELMER
##STATE=LIQUID
##PATH LENGTH=0.0015 CM
##SAMPLING PROCEDURE=TRANSMISSION
##RESOLUTION=4
##DATA PROCESSING=DIGITIZED BY NIST FROM HARD COPY
##XUNITS=MICROMETERS
##YUNITS=TRANSMITTANCE
##XFACTOR=1.000000
##YFACTOR=1
##DELTAX=000.006767
##FIRSTX=2.034
##LASTX=15.4056
##FIRSTY=0.948
##MAXX=15.4056
##MINX=2.034
##MAXY=0.984
##MINY=0.174
##NPOINTS=1977
##XYDATA=(X++(Y..Y))
2.034000 0.9480 0.9480 0.9480 0.9480 0.9480
2.067854 0.9480 0.9480 0.9480 0.9480 0.9480
2.102000 0.9480 0.9480 0.9480 0.9480 0.9480
2.135854 0.9500 0.9500 0.9500 0.9500 0.9500
2.169000 0.9500 0.9500 0.9500 0.9500 0.9500
2.202854 0.9480 0.9480 0.9430 0.9350 0.9300
2.237000 0.9240 0.9230 0.9230 0.9260 0.9280
2.270854 0.9280 0.9260 0.9240 0.9240 0.9240
2.305000 0.9260 0.9330 0.9400 0.9430 0.9470
2.338854 0.9480 0.9480 0.9480 0.9470 0.9410
2.372000 0.9380 0.9330 0.9300 0.9280 0.9260
2.405854 0.9240 0.9240 0.9240 0.9260 0.9280
2.440000 0.9310 0.9360 0.9380 0.9400 0.9410
2.473854 0.9410 0.9430 0.9480 0.9480 0.9500
2.508000 0.9500 0.9500 0.9500 0.9520 0.9520
2.541854 0.9520 0.9520 0.9520 0.9500 0.9500
2.575000 0.9500 0.9480 0.9480 0.9480 0.9480
2.608854 0.9480 0.9470 0.9470 0.9470 0.9450
2.643000 0.9450 0.9470 0.9470 0.9470 0.9470
2.676854 0.9480 0.9480 0.9480 0.9480 0.9480
2.711000 0.9450 0.9430 0.9430 0.9410 0.9380
2.744854 0.9300 0.9190 0.9090 0.8940 0.8890
2.778000 0.8870 0.8850 0.8850 0.8850 0.8830
2.811854 0.8830 0.8830 0.8830 0.8820 0.8820
2.846000 0.8820 0.8800 0.8800 0.8820 0.8820
2.879854 0.8830 0.8890 0.8900 0.8970 0.8990
2.914000 0.9010 0.9020 0.9060 0.9090 0.9120
2.947854 0.9140 0.9180 0.9210 0.9230 0.9260
2.981000 0.9280 0.9300 0.9330 0.9350 0.9360
3.014854 0.9380 0.9400 0.9410 0.9430 0.9450
3.049000 0.9470 0.9470 0.9480 0.9480 0.9480
3.082854 0.9480 0.9480 0.9480 0.9480 0.9480
3.117000 0.9480 0.9470 0.9470 0.9450 0.9450
3.150854 0.9430 0.9430 0.9410 0.9360 0.9350
3.184000 0.9310 0.9300 0.9260 0.9190 0.9120
3.217854 0.9110 0.9020 0.8950 0.8770 0.8540
3.252000 0.8190 0.7500 0.7010 0.6960 0.6910
3.285854 0.6910 0.6890 0.6890 0.6550 0.6220
3.320000 0.5490 0.5180 0.5150 0.5130 0.5130
3.353854 0.5170 0.5490 0.5760 0.6000 0.6240
3.387000 0.6550 0.6700 0.7080 0.7280 0.7300
3.420854 0.7300 0.7320 0.7330 0.7370 0.7620
3.455000 0.7960 0.8430 0.8780 0.8850 0.8900
3.488854 0.8970 0.8990 0.9040 0.9070 0.9110
3.523000 0.9140 0.9180 0.9230 0.9280 0.9330
3.556854 0.9380 0.9450 0.9500 0.9550 0.9590
3.590000 0.9620 0.9640 0.9650 0.9670 0.9670
3.623854 0.9690 0.9690 0.9700 0.9700 0.9700
3.658000 0.9720 0.9740 0.9740 0.9740 0.9740
3.691854 0.9760 0.9760 0.9760 0.9760 0.9770
3.726000 0.9790 0.9790 0.9790 0.9790 0.9790
3.759854 0.9770 0.9770 0.9760 0.9740 0.9720
3.793000 0.9700 0.9690 0.9690 0.9690 0.9690
3.826854 0.9690 0.9670 0.9670 0.9650 0.9650
3.861000 0.9650 0.9650 0.9650 0.9670 0.9690
3.894854 0.9700 0.9720 0.9720 0.9740 0.9760
3.929000 0.9760 0.9760 0.9770 0.9770 0.9770
3.962854 0.9770 0.9770 0.9770 0.9770 0.9760
3.996000 0.9760 0.9760 0.9760 0.9760 0.9740
4.029854 0.9740 0.9740 0.9740 0.9740 0.9740
4.064000 0.9740 0.9740 0.9740 0.9720 0.9720
4.097854 0.9700 0.9690 0.9670 0.9650 0.9640
4.132000 0.9640 0.9640 0.9620 0.9620 0.9620
4.165854 0.9620 0.9620 0.9620 0.9620 0.9620
4.199000 0.9640 0.9640 0.9640 0.9640 0.9640
4.232854 0.9640 0.9640 0.9640 0.9650 0.9650
4.267000 0.9650 0.9650 0.9650 0.9640 0.9640
4.300854 0.9640 0.9620 0.9620 0.9600 0.9570
4.335000 0.9550 0.9520 0.9500 0.9480 0.9410
4.368854 0.9360 0.9330 0.9280 0.9230 0.9190
4.402000 0.9160 0.9140 0.9120 0.9120 0.9140
4.435854 0.9160 0.9230 0.9300 0.9310 0.9350
4.470000 0.9380 0.9410 0.9430 0.9470 0.9480
4.503854 0.9480 0.9480 0.9480 0.9500 0.9500
4.538000 0.9500 0.9500 0.9520 0.9520 0.9530
4.571854 0.9530 0.9550 0.9570 0.9570 0.9570
4.605000 0.9570 0.9590 0.9590 0.9600 0.9620
4.638854 0.9640 0.9640 0.9640 0.9640 0.9650
4.673000 0.9650 0.9650 0.9670 0.9690 0.9690
4.706854 0.9690 0.9690 0.9690 0.9690 0.9690
4.741000 0.9690 0.9690 0.9690 0.9690 0.9700
4.774854 0.9700 0.9700 0.9700 0.9700 0.9700
4.808000 0.9700 0.9700 0.9720 0.9720 0.9720
4.841854 0.9720 0.9720 0.9720 0.9720 0.9720
4.876000 0.9720 0.9720 0.9720 0.9720 0.9720
4.909854 0.9720 0.9720 0.9720 0.9720 0.9720
4.944000 0.9720 0.9720 0.9740 0.9740 0.9740
4.977854 0.9720 0.9720 0.9700 0.9700 0.9690
5.011000 0.9670 0.9650 0.9650 0.9650 0.9640
5.044854 0.9640 0.9640 0.9640 0.9650 0.9670
5.079000 0.9670 0.9690 0.9700 0.9720 0.9720
5.112854 0.9740 0.9760 0.9760 0.9760 0.9770
5.147000 0.9770 0.9770 0.9770 0.9770 0.9770
5.180854 0.9770 0.9770 0.9770 0.9770 0.9770
5.214000 0.9770 0.9760 0.9760 0.9740 0.9740
5.247854 0.9760 0.9760 0.9760 0.9770 0.9790
5.282000 0.9810 0.9810 0.9810 0.9810 0.9810
5.315854 0.9810 0.9810 0.9820 0.9820 0.9820
5.350000 0.9820 0.9820 0.9820 0.9810 0.9790
5.383854 0.9770 0.9770 0.9760 0.9760 0.9760
5.417000 0.9760 0.9760 0.9770 0.9770 0.9760
5.450854 0.9760 0.9760 0.9760 0.9770 0.9770
5.485000 0.9770 0.9770 0.9770 0.9790 0.9790
5.518854 0.9790 0.9790 0.9790 0.9790 0.9770
5.553000 0.9770 0.9770 0.9770 0.9770 0.9770
5.586854 0.9770 0.9790 0.9790 0.9790 0.9810
5.621000 0.9820 0.9840 0.9840 0.9840 0.9840
5.654854 0.9840 0.9820 0.9820 0.9820 0.9820
5.688000 0.9810 0.9810 0.9810 0.9810 0.9810
5.721854 0.9810 0.9810 0.9810 0.9790 0.9770
5.756000 0.9760 0.9740 0.9700 0.9670 0.9650
5.789854 0.9650 0.9640 0.9640 0.9650 0.9650
5.824000 0.9670 0.9690 0.9700 0.9700 0.9720
5.857854 0.9740 0.9760 0.9760 0.9760 0.9760
5.891000 0.9760 0.9770 0.9770 0.9770 0.9770
5.924854 0.9770 0.9770 0.9770 0.9770 0.9760
5.959000 0.9760 0.9740 0.9740 0.9720 0.9720
5.992854 0.9700 0.9690 0.9670 0.9650 0.9650
6.027000 0.9650 0.9640 0.9620 0.9600 0.9590
6.060854 0.9570 0.9530 0.9500 0.9470 0.9400
6.094000 0.9310 0.9280 0.9240 0.9240 0.9230
6.127854 0.9230 0.9210 0.9190 0.9180 0.9160
6.162000 0.9140 0.9140 0.9140 0.9140 0.9140
6.195854 0.9140 0.9140 0.9160 0.9180 0.9210
6.230000 0.9240 0.9280 0.9310 0.9350 0.9400
6.263854 0.9450 0.9480 0.9500 0.9520 0.9550
6.297000 0.9590 0.9600 0.9640 0.9640 0.9640
6.330854 0.9650 0.9650 0.9650 0.9650 0.9670
6.365000 0.9670 0.9650 0.9620 0.9600 0.9590
6.398854 0.9570 0.9570 0.9550 0.9530 0.9520
6.433000 0.9520 0.9500 0.9500 0.9480 0.9480
6.466854 0.9480 0.9480 0.9480 0.9480 0.9500
6.500000 0.9500 0.9500 0.9500 0.9500 0.9500
6.533854 0.9480 0.9480 0.9470 0.9450 0.9430
6.568000 0.9400 0.9360 0.9310 0.9190 0.9060
6.601854 0.8970 0.8890 0.8830 0.8820 0.8820
6.636000 0.8820 0.8820 0.8820 0.8820 0.8830
6.669854 0.8830 0.8850 0.8870 0.8890 0.8870
6.703000 0.8850 0.8830 0.8780 0.8680 0.8440
6.736854 0.8190 0.7840 0.7570 0.7450 0.7370
6.771000 0.7370 0.7370 0.7380 0.7440 0.7540
6.804854 0.7810 0.8080 0.8220 0.8320 0.8410
6.839000 0.8490 0.8490 0.8510 0.8530 0.8530
6.872854 0.8510 0.8430 0.8320 0.8120 0.7860
6.906000 0.7130 0.6800 0.6650 0.6360 0.5850
6.939854 0.5800 0.5800 0.5780 0.5750 0.5220
6.974000 0.4930 0.4670 0.4400 0.4140 0.3850
7.007854 0.3830 0.3830 0.3870 0.5390 0.5610
7.042000 0.6220 0.6770 0.7010 0.7730 0.8030
7.075854 0.8100 0.8130 0.8170 0.8170 0.8150
7.109000 0.8000 0.7780 0.7370 0.6670 0.6410
7.142854 0.6190 0.6020 0.5950 0.5930 0.5930
7.177000 0.5930 0.5930 0.5970 0.5980 0.6040
7.210854 0.6240 0.6450 0.7030 0.7830 0.7960
7.245000 0.8220 0.8460 0.8610 0.8720 0.8750
7.278854 0.8800 0.8890 0.8970 0.9010 0.9070
7.312000 0.9120 0.9160 0.9190 0.9230 0.9260
7.345854 0.9300 0.9310 0.9350 0.9360 0.9380
7.380000 0.9400 0.9450 0.9450 0.9470 0.9470
7.413854 0.9480 0.9480 0.9480 0.9480 0.9480
7.448000 0.9500 0.9500 0.9500 0.9500 0.9500
7.481854 0.9500 0.9500 0.9520 0.9520 0.9520
7.515000 0.9520 0.9520 0.9500 0.9500 0.9500
7.548854 0.9500 0.9480 0.9480 0.9480 0.9480
7.583000 0.9470 0.9470 0.9450 0.9450 0.9430
7.616854 0.9410 0.9400 0.9380 0.9380 0.9360
7.651000 0.9360 0.9360 0.9360 0.9360 0.9350
7.684854 0.9350 0.9330 0.9310 0.9300 0.9280
7.718000 0.9260 0.9240 0.9210 0.9210 0.9160
7.751854 0.9090 0.9010 0.8920 0.8890 0.8800
7.786000 0.8770 0.8680 0.8600 0.8490 0.8370
7.819854 0.8270 0.8130 0.8020 0.7860 0.7380
7.854000 0.7030 0.6670 0.6040 0.5400 0.5110
7.887854 0.4880 0.4590 0.4190 0.3580 0.3510
7.921000 0.3430 0.3370 0.3290 0.3220 0.3150
7.954854 0.3070 0.3030 0.3030 0.3030 0.3070
7.989000 0.3190 0.3320 0.3410 0.3480 0.5000
8.022854 0.5760 0.6120 0.6480 0.6620 0.6720
8.057000 0.6800 0.6870 0.6910 0.6920 0.6910
8.090854 0.6870 0.6790 0.6450 0.6090 0.5750
8.124000 0.5270 0.4740 0.4360 0.4020 0.3540
8.157854 0.2830 0.2570 0.2080 0.1870 0.1770
8.192000 0.1740 0.1740 0.1740 0.1740 0.1790
8.225854 0.1960 0.2230 0.2730 0.2900 0.3870
8.260000 0.5440 0.5900 0.6550 0.6920 0.7180
8.293854 0.7260 0.7370 0.7440 0.7500 0.7520
8.327000 0.7540 0.7520 0.7500 0.7490 0.7400
8.360854 0.7350 0.7320 0.7300 0.7300 0.7300
8.395000 0.7300 0.7300 0.7320 0.7330 0.7330
8.428854 0.7320 0.7280 0.7180 0.7030 0.6870
8.463000 0.6820 0.6800 0.6800 0.6820 0.6870
8.496854 0.7080 0.7320 0.7440 0.7520 0.7610
8.530000 0.7760 0.7980 0.8030 0.8170 0.8270
8.563854 0.8340 0.8370 0.8410 0.8440 0.8490
8.598000 0.8490 0.8510 0.8530 0.8540 0.8540
8.631854 0.8530 0.8510 0.8490 0.8410 0.8310
8.666000 0.8190 0.8080 0.7980 0.7830 0.7740
8.699854 0.7670 0.7590 0.7520 0.7500 0.7440
8.733000 0.7320 0.7260 0.7230 0.7110 0.7030
8.766854 0.6870 0.6680 0.6530 0.6390 0.6270
8.801000 0.6160 0.6050 0.6020 0.6020 0.6020
8.834854 0.6210 0.6560 0.6770 0.7130 0.7440
8.869000 0.7640 0.7810 0.7910 0.8020 0.8070
8.902854 0.8200 0.8290 0.8340 0.8410 0.8480
8.936000 0.8510 0.8530 0.8560 0.8630 0.8680
8.969854 0.8680 0.8700 0.8720 0.8730 0.8750
9.004000 0.8770 0.8780 0.8800 0.8800 0.8820
9.037854 0.8830 0.8830 0.8830 0.8850 0.8850
9.072000 0.8850 0.8850 0.8830 0.8830 0.8830
9.105854 0.8820 0.8820 0.8820 0.8800 0.8800
9.140000 0.8780 0.8780 0.8750 0.8730 0.8700
9.173854 0.8650 0.8610 0.8560 0.8490 0.8430
9.207000 0.8340 0.8270 0.8200 0.8070 0.8020
9.240854 0.8020 0.8000 0.8000 0.8000 0.8000
9.275000 0.8000 0.8020 0.8030 0.8100 0.8150
9.308854 0.8220 0.8310 0.8360 0.8410 0.8440
9.343000 0.8490 0.8510 0.8540 0.8560 0.8580
9.376854 0.8580 0.8580 0.8540 0.8530 0.8510
9.410000 0.8480 0.8460 0.8440 0.8430 0.8430
9.443854 0.8430 0.8430 0.8430 0.8480 0.8510
9.478000 0.8560 0.8610 0.8650 0.8700 0.8730
9.511854 0.8770 0.8800 0.8820 0.8830 0.8850
9.546000 0.8850 0.8830 0.8820 0.8800 0.8780
9.579854 0.8770 0.8720 0.8660 0.8580 0.8490
9.613000 0.8390 0.8360 0.8290 0.8170 0.8100
9.646854 0.8080 0.8100 0.8120 0.8130 0.8190
9.681000 0.8240 0.8320 0.8390 0.8480 0.8530
9.714854 0.8600 0.8610 0.8650 0.8680 0.8720
9.749000 0.8730 0.8770 0.8830 0.8830 0.8850
9.782854 0.8870 0.8890 0.8900 0.8920 0.8950
9.816000 0.8970 0.8990 0.9010 0.9010 0.9020
9.849854 0.9040 0.9060 0.9060 0.9070 0.9090
9.884000 0.9090 0.9110 0.9120 0.9120 0.9120
9.917854 0.9120 0.9120 0.9120 0.9120 0.9140
9.952000 0.9140 0.9140 0.9140 0.9140 0.9140
9.985854 0.9140 0.9140 0.9160 0.9160 0.9160
10.019000 0.9160 0.9160 0.9160 0.9160 0.9140
10.052854 0.9120 0.9110 0.9090 0.9070 0.9060
10.087000 0.9060 0.9040 0.9040 0.9020 0.9020
10.120854 0.9020 0.9020 0.9020 0.9020 0.9020
10.155000 0.9020 0.9020 0.9020 0.9020 0.9020
10.188854 0.9020 0.9020 0.9020 0.9020 0.9020
10.222000 0.9010 0.9010 0.9010 0.8990 0.8990
10.255854 0.8990 0.8970 0.8950 0.8920 0.8890
10.290000 0.8890 0.8890 0.8830 0.8820 0.8780
10.323854 0.8750 0.8730 0.8700 0.8680 0.8650
10.358000 0.8600 0.8540 0.8510 0.8460 0.8360
10.391854 0.8290 0.8220 0.8100 0.7950 0.7880
10.425000 0.7730 0.7500 0.7350 0.7150 0.6920
10.458854 0.6510 0.6330 0.6020 0.5800 0.4980
10.493000 0.4620 0.4180 0.3530 0.3220 0.2900
10.526854 0.2780 0.2730 0.2710 0.2690 0.2710
10.561000 0.2780 0.2900 0.3170 0.3490 0.3870
10.594854 0.4300 0.4720 0.5130 0.5520 0.5870
10.628000 0.6120 0.6340 0.6550 0.6750 0.6920
10.661854 0.7090 0.7230 0.7370 0.7470 0.7520
10.696000 0.7550 0.7620 0.7690 0.7710 0.7730
10.729854 0.7760 0.7760 0.7760 0.7730 0.7710
10.764000 0.7690 0.7640 0.7570 0.7420 0.7230
10.797854 0.7090 0.6860 0.6580 0.6430 0.6240
10.831000 0.6050 0.5900 0.5750 0.5400 0.4980
10.864854 0.4650 0.4480 0.4180 0.3850 0.3540
10.899000 0.3170 0.2860 0.2710 0.2660 0.2640
10.932854 0.2640 0.2660 0.2670 0.2710 0.2900
10.967000 0.2950 0.3150 0.4040 0.4450 0.4720
11.000854 0.5350 0.6000 0.6210 0.6510 0.6600
11.034000 0.6750 0.6820 0.6910 0.7040 0.7180
11.067854 0.7320 0.7450 0.7550 0.7620 0.7670
11.102000 0.7730 0.7790 0.7830 0.7840 0.7880
11.135854 0.7900 0.7910 0.7910 0.7900 0.7810
11.170000 0.7790 0.7690 0.7540 0.7440 0.7300
11.203854 0.7060 0.6860 0.6650 0.6480 0.6310
11.237000 0.6100 0.5980 0.5780 0.5750 0.5750
11.270854 0.5750 0.5760 0.5760 0.5810 0.6040
11.305000 0.6210 0.6340 0.6460 0.6560 0.6680
11.338854 0.6800 0.6840 0.6910 0.7010 0.7040
11.373000 0.7090 0.7180 0.7210 0.7260 0.7300
11.406854 0.7330 0.7400 0.7440 0.7500 0.7540
11.440000 0.7610 0.7640 0.7660 0.7690 0.7710
11.473854 0.7730 0.7730 0.7730 0.7710 0.7640
11.508000 0.7610 0.7540 0.7440 0.7260 0.7160
11.541854 0.7060 0.6970 0.6860 0.6740 0.6560
11.576000 0.6460 0.6360 0.6310 0.6260 0.6220
11.609854 0.6210 0.6190 0.6170 0.6160 0.6140
11.643000 0.6120 0.6120 0.6120 0.6100 0.6090
11.676854 0.6020 0.6000 0.5880 0.5810 0.5610
11.711000 0.5460 0.5320 0.5170 0.5030 0.4880
11.744854 0.4690 0.4500 0.4260 0.3970 0.3660
11.779000 0.3480 0.3240 0.3030 0.2830 0.2760
11.812854 0.2730 0.2730 0.2730 0.2730 0.2730
11.846000 0.2760 0.2880 0.3020 0.3130 0.3240
11.879854 0.3340 0.3460 0.3530 0.3630 0.3720
11.914000 0.3770 0.3800 0.3820 0.3830 0.3830
11.947854 0.3830 0.3800 0.3780 0.3750 0.3700
11.982000 0.3650 0.3630 0.3630 0.3630 0.3630
12.015854 0.3650 0.3660 0.3660 0.3700 0.3730
12.049000 0.3820 0.3900 0.3970 0.4060 0.4120
12.082854 0.4230 0.4330 0.4450 0.4570 0.4700
12.117000 0.4880 0.5030 0.5220 0.5390 0.5580
12.150854 0.5760 0.5930 0.6090 0.6220 0.6360
12.185000 0.6460 0.6530 0.6630 0.6740 0.6840
12.218854 0.6960 0.7010 0.7060 0.7160 0.7260
12.252000 0.7350 0.7450 0.7550 0.7660 0.7710
12.285854 0.7780 0.7810 0.7900 0.7980 0.8030
12.320000 0.8050 0.8100 0.8170 0.8200 0.8270
12.353854 0.8290 0.8320 0.8370 0.8410 0.8410
12.388000 0.8440 0.8440 0.8480 0.8490 0.8510
12.421854 0.8530 0.8540 0.8560 0.8580 0.8600
12.455000 0.8600 0.8610 0.8610 0.8630 0.8650
12.488854 0.8660 0.8660 0.8660 0.8660 0.8660
12.523000 0.8660 0.8660 0.8660 0.8650 0.8650
12.556854 0.8630 0.8610 0.8610 0.8600 0.8580
12.591000 0.8560 0.8560 0.8530 0.8510 0.8490
12.624854 0.8480 0.8460 0.8410 0.8370 0.8320
12.659000 0.8240 0.8150 0.8120 0.8030 0.7980
12.692854 0.7950 0.7790 0.7640 0.7500 0.7380
12.726000 0.7280 0.7160 0.7080 0.6990 0.6890
12.759854 0.6790 0.6680 0.6580 0.6530 0.6500
12.794000 0.6430 0.6390 0.6340 0.6310 0.6310
12.827854 0.6310 0.6310 0.6330 0.6330 0.6390
12.862000 0.6460 0.6550 0.6560 0.6700 0.6800
12.895854 0.6860 0.6940 0.7030 0.7160 0.7200
12.929000 0.7280 0.7350 0.7420 0.7470 0.7590
12.962854 0.7670 0.7710 0.7760 0.7790 0.7830
12.997000 0.7840 0.7880 0.7900 0.7900 0.7900
13.030854 0.7880 0.7880 0.7830 0.7830 0.7760
13.065000 0.7660 0.7620 0.7500 0.7400 0.7320
13.098854 0.7230 0.7150 0.7060 0.6970 0.6890
13.132000 0.6770 0.6650 0.6500 0.6290 0.6090
13.165854 0.5930 0.5750 0.5590 0.5440 0.5230
13.200000 0.5130 0.4720 0.4620 0.4620 0.4620
13.233854 0.4620 0.4640 0.4720 0.4790 0.4810
13.268000 0.5000 0.5230 0.5440 0.5640 0.5870
13.301854 0.6090 0.6310 0.6580 0.6740 0.6910
13.335000 0.7090 0.7230 0.7350 0.7400 0.7490
13.368854 0.7610 0.7660 0.7710 0.7780 0.7810
13.403000 0.7840 0.7900 0.7980 0.8020 0.8070
13.436854 0.8100 0.8150 0.8190 0.8250 0.8310
13.471000 0.8340 0.8390 0.8410 0.8480 0.8480
13.504854 0.8510 0.8540 0.8560 0.8580 0.8600
13.538000 0.8610 0.8630 0.8650 0.8660 0.8680
13.571854 0.8700 0.8720 0.8720 0.8730 0.8750
13.606000 0.8750 0.8770 0.8780 0.8800 0.8800
13.639854 0.8820 0.8820 0.8820 0.8830 0.8830
13.674000 0.8850 0.8850 0.8850 0.8850 0.8870
13.707854 0.8870 0.8870 0.8870 0.8890 0.8890
13.741000 0.8890 0.8890 0.8900 0.8900 0.8900
13.774854 0.8920 0.8920 0.8920 0.8920 0.8920
13.809000 0.8920 0.8920 0.8940 0.8940 0.8940
13.842854 0.8940 0.8940 0.8940 0.8940 0.8940
13.877000 0.8940 0.8940 0.8940 0.8940 0.8920
13.910854 0.8920 0.8920 0.8920 0.8920 0.8920
13.944000 0.8920 0.8920 0.8920 0.8920 0.8920
13.977854 0.8920 0.8920 0.8900 0.8900 0.8920
14.012000 0.8920 0.8920 0.8920 0.8900 0.8900
14.045854 0.8900 0.8900 0.8900 0.8900 0.8900
14.080000 0.8890 0.8890 0.8890 0.8890 0.8890
14.113854 0.8890 0.8890 0.8890 0.8890 0.8890
14.147000 0.8870 0.8870 0.8870 0.8870 0.8870
14.180854 0.8870 0.8870 0.8870 0.8870 0.8870
14.215000 0.8870 0.8870 0.8850 0.8850 0.8850
14.248854 0.8850 0.8850 0.8850 0.8850 0.8850
14.283000 0.8850 0.8830 0.8830 0.8830 0.8830
14.316854 0.8820 0.8820 0.8820 0.8820 0.8820
14.350000 0.8820 0.8800 0.8800 0.8800 0.8800
14.383854 0.8800 0.8800 0.8780 0.8780 0.8770
14.418000 0.8770 0.8750 0.8750 0.8730 0.8730
14.451854 0.8720 0.8720 0.8720 0.8700 0.8680
14.486000 0.8680 0.8680 0.8680 0.8680 0.8680
14.519854 0.8680 0.8660 0.8660 0.8650 0.8650
14.553000 0.8650 0.8650 0.8630 0.8610 0.8610
14.586854 0.8610 0.8610 0.8600 0.8600 0.8580
14.621000 0.8560 0.8540 0.8540 0.8540 0.8530
14.654854 0.8530 0.8530 0.8510 0.8490 0.8480
14.689000 0.8480 0.8480 0.8460 0.8430 0.8410
14.722854 0.8410 0.8390 0.8390 0.8390 0.8370
14.756000 0.8340 0.8310 0.8290 0.8290 0.8270
14.789854 0.8270 0.8250 0.8240 0.8220 0.8200
14.824000 0.8190 0.8190 0.8150 0.8130 0.8120
14.857854 0.8100 0.8080 0.8050 0.8020 0.8020
14.892000 0.8000 0.8000 0.7980 0.7980 0.7950
14.925854 0.7930 0.7910 0.7900 0.7860 0.7830
14.959000 0.7790 0.7730 0.7660 0.7620 0.7570
14.992854 0.7540 0.7500 0.7440 0.7350 0.7260
15.027000 0.7200 0.7110 0.7010 0.6920 0.6840
15.060854 0.6750 0.6650 0.6560 0.6460 0.6380
15.095000 0.6290 0.6190 0.6090 0.6000 0.5900
15.128854 0.5850 0.5760 0.5710 0.5660 0.5610
15.162000 0.5510 0.5460 0.5390 0.5320 0.5270
15.195854 0.5220 0.5170 0.5130 0.5080 0.5030
15.230000 0.5000 0.4980 0.4960 0.4940 0.4910
15.263854 0.4890 0.4840 0.4820 0.4820 0.4810
15.298000 0.4810 0.4810 0.4810 0.4790 0.4790
15.331854 0.4790 0.4790 0.4790 0.4790 0.4790
15.365000 0.4790 0.4790 0.4790 0.4790 0.4790
15.398854 0.4790 0.4790
##END=
