##TITLE=CROTON ALDEHYDE
$$ E.K. NO. 1878
##JCAMP-DX=4.24
##DATA TYPE=INFRARED SPECTRUM
##CLASS=COBLENTZ
##ORIGIN=TENNESSEE EASTMAN COMPANY, RESEARCH LABORATORIES
##OWNER=COBLENTZ SOCIETY
Collection (C) 2018 copyright by the U.S. Secretary of Commerce
on behalf of the United States of America. All rights reserved.
##DATE=Not specified, most likely prior to 1970
##NAMES=(2E)-2-butenal
##CAS REGISTRY NO=4170-30-3
##MOLFORM=C4 H6 O
##BP=100-102 C
##SOURCE REFERENCE=COBLENTZ NO. 1609
##$NIST SOURCE=COBLENTZ
##$NIST IMAGE=cob1609
##SPECTROMETER/DATA SYSTEM=Not specified, most likely a prism, grating, or hybrid spectrometer.
##STATE=LIQUID
##PATH LENGTH=0.0025 CM
##SAMPLING PROCEDURE=TRANSMISSION
##RESOLUTION=4
##DATA PROCESSING=DIGITIZED BY NIST FROM HARD COPY
##XUNITS=MICROMETERS
##YUNITS=TRANSMITTANCE
##XFACTOR=1.000000
##YFACTOR=1
##DELTAX=000.006826
##FIRSTX=2.048
##LASTX=15.9935
##FIRSTY=0.965
##MAXX=15.9935
##MINX=2.048
##MAXY=0.976
##MINY=0.023
##NPOINTS=2044
##XYDATA=(X++(Y..Y))
2.048000 0.9650 0.9650 0.9650 0.9650 0.9650
2.082146 0.9640 0.9640 0.9640 0.9640 0.9620
2.116000 0.9620 0.9620 0.9620 0.9620 0.9620
2.150146 0.9620 0.9620 0.9620 0.9620 0.9620
2.184000 0.9620 0.9620 0.9620 0.9620 0.9620
2.218146 0.9620 0.9600 0.9600 0.9590 0.9590
2.253000 0.9590 0.9590 0.9590 0.9590 0.9570
2.287146 0.9570 0.9570 0.9570 0.9570 0.9570
2.321000 0.9570 0.9570 0.9570 0.9570 0.9590
2.355146 0.9590 0.9590 0.9590 0.9590 0.9590
2.389000 0.9600 0.9600 0.9600 0.9600 0.9620
2.423146 0.9600 0.9600 0.9600 0.9600 0.9600
2.457000 0.9600 0.9620 0.9620 0.9620 0.9620
2.491146 0.9620 0.9620 0.9620 0.9620 0.9640
2.526000 0.9640 0.9640 0.9640 0.9640 0.9640
2.560146 0.9640 0.9640 0.9640 0.9650 0.9650
2.594000 0.9650 0.9650 0.9650 0.9650 0.9650
2.628146 0.9650 0.9650 0.9650 0.9650 0.9650
2.662000 0.9650 0.9650 0.9650 0.9650 0.9650
2.696146 0.9650 0.9650 0.9650 0.9650 0.9650
2.730000 0.9650 0.9650 0.9650 0.9650 0.9650
2.764146 0.9670 0.9650 0.9650 0.9650 0.9650
2.799000 0.9650 0.9650 0.9650 0.9650 0.9640
2.833146 0.9640 0.9620 0.9620 0.9620 0.9620
2.867000 0.9620 0.9620 0.9600 0.9600 0.9590
2.901146 0.9590 0.9590 0.9550 0.9520 0.9500
2.935000 0.9400 0.9300 0.9190 0.9090 0.8990
2.969146 0.8890 0.8870 0.8870 0.8890 0.8890
3.003000 0.8900 0.8920 0.8940 0.8950 0.8970
3.037146 0.8970 0.8990 0.8990 0.9010 0.9020
3.072000 0.9040 0.9060 0.9060 0.9070 0.9070
3.106146 0.9090 0.9110 0.9110 0.9120 0.9120
3.140000 0.9140 0.9140 0.9140 0.9140 0.9140
3.174146 0.9140 0.9140 0.9140 0.9140 0.9110
3.208000 0.9090 0.9060 0.9040 0.8990 0.8890
3.242146 0.8820 0.8730 0.8650 0.8510 0.8480
3.276000 0.8410 0.8200 0.8030 0.7980 0.7900
3.310146 0.7840 0.7780 0.7710 0.7610 0.7550
3.345000 0.7500 0.7420 0.7370 0.7300 0.7250
3.379146 0.7210 0.7150 0.7130 0.7110 0.7130
3.413000 0.7260 0.7420 0.7690 0.7830 0.7860
3.447146 0.7860 0.7830 0.7730 0.7520 0.7260
3.481000 0.7060 0.6910 0.6750 0.6620 0.6360
3.515146 0.6190 0.6090 0.6050 0.6090 0.6360
3.549000 0.6650 0.6940 0.7180 0.7760 0.8030
3.583146 0.8070 0.8070 0.8020 0.7880 0.7730
3.618000 0.7450 0.7110 0.6630 0.6430 0.6270
3.652146 0.6260 0.6290 0.6670 0.7010 0.7280
3.686000 0.7540 0.7710 0.7830 0.7910 0.8020
3.720146 0.8070 0.8250 0.8360 0.8510 0.8650
3.754000 0.8820 0.8920 0.8970 0.9020 0.9090
3.788146 0.9110 0.9120 0.9120 0.9120 0.9160
3.823000 0.9190 0.9260 0.9310 0.9350 0.9380
3.857146 0.9400 0.9410 0.9430 0.9430 0.9430
3.891000 0.9450 0.9450 0.9450 0.9450 0.9450
3.925146 0.9450 0.9450 0.9480 0.9480 0.9500
3.959000 0.9500 0.9500 0.9500 0.9520 0.9520
3.993146 0.9520 0.9520 0.9520 0.9530 0.9530
4.027000 0.9550 0.9550 0.9550 0.9550 0.9550
4.061146 0.9550 0.9550 0.9570 0.9570 0.9570
4.096000 0.9570 0.9570 0.9570 0.9590 0.9590
4.130146 0.9600 0.9600 0.9600 0.9600 0.9600
4.164000 0.9600 0.9600 0.9600 0.9600 0.9600
4.198146 0.9600 0.9600 0.9600 0.9600 0.9600
4.232000 0.9600 0.9600 0.9600 0.9600 0.9600
4.266146 0.9600 0.9600 0.9600 0.9600 0.9600
4.300000 0.9600 0.9600 0.9600 0.9600 0.9600
4.334146 0.9600 0.9600 0.9600 0.9600 0.9600
4.369000 0.9600 0.9600 0.9600 0.9600 0.9620
4.403146 0.9620 0.9620 0.9640 0.9650 0.9690
4.437000 0.9700 0.9700 0.9700 0.9690 0.9690
4.471146 0.9690 0.9670 0.9650 0.9640 0.9640
4.505000 0.9640 0.9640 0.9640 0.9640 0.9650
4.539146 0.9650 0.9650 0.9670 0.9670 0.9670
4.573000 0.9650 0.9650 0.9640 0.9600 0.9530
4.607146 0.9430 0.9380 0.9380 0.9400 0.9410
4.642000 0.9520 0.9550 0.9600 0.9620 0.9650
4.676146 0.9650 0.9670 0.9670 0.9670 0.9670
4.710000 0.9670 0.9670 0.9670 0.9690 0.9690
4.744146 0.9690 0.9690 0.9690 0.9690 0.9690
4.778000 0.9690 0.9690 0.9690 0.9690 0.9690
4.812146 0.9690 0.9690 0.9690 0.9700 0.9700
4.846000 0.9700 0.9700 0.9700 0.9720 0.9720
4.880146 0.9720 0.9720 0.9720 0.9720 0.9720
4.915000 0.9720 0.9720 0.9700 0.9700 0.9700
4.949146 0.9690 0.9690 0.9670 0.9670 0.9670
4.983000 0.9690 0.9690 0.9690 0.9690 0.9700
5.017146 0.9700 0.9700 0.9700 0.9720 0.9720
5.051000 0.9720 0.9720 0.9740 0.9740 0.9740
5.085146 0.9760 0.9760 0.9760 0.9760 0.9760
5.119000 0.9760 0.9760 0.9760 0.9760 0.9760
5.153146 0.9760 0.9760 0.9760 0.9760 0.9760
5.188000 0.9760 0.9760 0.9760 0.9760 0.9760
5.222146 0.9740 0.9740 0.9740 0.9740 0.9740
5.256000 0.9740 0.9740 0.9740 0.9740 0.9740
5.290146 0.9740 0.9740 0.9740 0.9740 0.9740
5.324000 0.9740 0.9740 0.9740 0.9740 0.9720
5.358146 0.9720 0.9700 0.9700 0.9700 0.9690
5.392000 0.9670 0.9670 0.9650 0.9640 0.9640
5.426146 0.9620 0.9620 0.9620 0.9620 0.9590
5.461000 0.9550 0.9520 0.9520 0.9500 0.9500
5.495146 0.9500 0.9500 0.9500 0.9500 0.9520
5.529000 0.9530 0.9530 0.9530 0.9530 0.9530
5.563146 0.9530 0.9530 0.9520 0.9520 0.9500
5.597000 0.9470 0.9410 0.9400 0.9360 0.9310
5.631146 0.9300 0.9210 0.9180 0.9090 0.9040
5.666000 0.8990 0.8890 0.8750 0.8680 0.8560
5.700146 0.8480 0.8390 0.8310 0.8170 0.8030
5.734000 0.7960 0.7830 0.7670 0.7550 0.7280
5.768146 0.6990 0.6820 0.6630 0.6530 0.6330
5.802000 0.5950 0.5780 0.5170 0.4620 0.3720
5.836146 0.2930 0.2330 0.1960 0.1580 0.1140
5.870000 0.0760 0.0540 0.0320 0.0290 0.0230
5.904146 0.0230 0.0230 0.0230 0.0270 0.0300
5.939000 0.0420 0.0590 0.0870 0.1380 0.1820
5.973146 0.2280 0.2780 0.3370 0.4090 0.4410
6.007000 0.4760 0.5010 0.5150 0.5250 0.5290
6.041146 0.5290 0.5270 0.5180 0.5010 0.4530
6.075000 0.3580 0.2670 0.2590 0.2640 0.3000
6.109146 0.3680 0.4410 0.5180 0.5630 0.5810
6.143000 0.5850 0.5850 0.5980 0.6290 0.6620
6.177146 0.6820 0.6960 0.7080 0.7210 0.7470
6.212000 0.7540 0.7710 0.7900 0.8050 0.8050
6.246146 0.8150 0.8250 0.8360 0.8440 0.8510
6.280000 0.8540 0.8610 0.8630 0.8650 0.8660
6.314146 0.8660 0.8660 0.8660 0.8660 0.8650
6.348000 0.8630 0.8610 0.8560 0.8540 0.8510
6.382146 0.8490 0.8430 0.8360 0.8310 0.8310
6.416000 0.8310 0.8320 0.8340 0.8340 0.8320
6.450146 0.8320 0.8320 0.8320 0.8320 0.8340
6.485000 0.8370 0.8440 0.8530 0.8600 0.8610
6.519146 0.8630 0.8650 0.8650 0.8650 0.8660
6.553000 0.8660 0.8680 0.8700 0.8720 0.8750
6.587146 0.8770 0.8770 0.8780 0.8780 0.8780
6.621000 0.8780 0.8780 0.8780 0.8780 0.8780
6.655146 0.8770 0.8770 0.8770 0.8750 0.8730
6.689000 0.8700 0.8660 0.8650 0.8600 0.8530
6.723146 0.8490 0.8440 0.8410 0.8370 0.8290
6.758000 0.8200 0.8080 0.8020 0.7910 0.7880
6.792146 0.7810 0.7780 0.7670 0.7610 0.7500
6.826000 0.7330 0.7130 0.6580 0.6460 0.6160
6.860146 0.5830 0.5640 0.5200 0.4860 0.4590
6.894000 0.4450 0.4430 0.4480 0.4590 0.4880
6.928146 0.5080 0.5400 0.5580 0.5780 0.5980
6.962000 0.6140 0.6310 0.6530 0.6630 0.6740
6.996146 0.6990 0.7130 0.7210 0.7320 0.7380
7.031000 0.7500 0.7590 0.7730 0.7760 0.7810
7.065146 0.7840 0.7860 0.7860 0.7860 0.7840
7.099000 0.7760 0.7710 0.7500 0.7400 0.7110
7.133146 0.6820 0.6650 0.6460 0.6330 0.6330
7.167000 0.6340 0.6380 0.6550 0.6700 0.6860
7.201146 0.6940 0.7010 0.6990 0.6990 0.6820
7.235000 0.6620 0.6450 0.6290 0.6270 0.6260
7.269146 0.6270 0.6500 0.6800 0.7080 0.7380
7.304000 0.7550 0.7670 0.7880 0.7980 0.8030
7.338146 0.8120 0.8170 0.8220 0.8310 0.8320
7.372000 0.8360 0.8410 0.8430 0.8440 0.8460
7.406146 0.8480 0.8480 0.8490 0.8490 0.8510
7.440000 0.8510 0.8530 0.8540 0.8540 0.8560
7.474146 0.8560 0.8560 0.8580 0.8600 0.8610
7.509000 0.8630 0.8650 0.8660 0.8660 0.8660
7.543146 0.8660 0.8680 0.8680 0.8660 0.8650
7.577000 0.8630 0.8540 0.8530 0.8410 0.8240
7.611146 0.8170 0.8050 0.7900 0.7760 0.7660
7.645000 0.7540 0.7450 0.7380 0.7370 0.7380
7.679146 0.7420 0.7520 0.7640 0.7760 0.7840
7.713000 0.7930 0.8000 0.8030 0.8080 0.8100
7.747146 0.8130 0.8170 0.8220 0.8250 0.8310
7.782000 0.8340 0.8370 0.8410 0.8440 0.8490
7.816146 0.8530 0.8540 0.8540 0.8560 0.8560
7.850000 0.8580 0.8600 0.8600 0.8600 0.8600
7.884146 0.8600 0.8600 0.8600 0.8600 0.8600
7.918000 0.8580 0.8540 0.8480 0.8410 0.8340
7.952146 0.8320 0.8310 0.8310 0.8290 0.8290
7.986000 0.8290 0.8430 0.8480 0.8530 0.8560
8.020146 0.8560 0.8580 0.8580 0.8580 0.8580
8.055000 0.8580 0.8580 0.8580 0.8580 0.8560
8.089146 0.8540 0.8530 0.8510 0.8490 0.8490
8.123000 0.8480 0.8480 0.8480 0.8490 0.8510
8.157146 0.8530 0.8540 0.8540 0.8560 0.8560
8.191000 0.8580 0.8580 0.8580 0.8580 0.8580
8.225146 0.8580 0.8580 0.8560 0.8560 0.8540
8.259000 0.8530 0.8430 0.8410 0.8240 0.8220
8.293146 0.8250 0.8370 0.8370 0.8270 0.8150
8.328000 0.8000 0.7980 0.7960 0.7950 0.7950
8.362146 0.7950 0.7960 0.7960 0.7960 0.7980
8.396000 0.7980 0.7960 0.7930 0.7910 0.7880
8.430146 0.7790 0.7760 0.7670 0.7610 0.7540
8.464000 0.7470 0.7350 0.7300 0.7210 0.7060
8.498146 0.6990 0.6840 0.6770 0.6620 0.6460
8.532000 0.6270 0.6070 0.5870 0.5630 0.5370
8.566146 0.5080 0.4790 0.4450 0.4090 0.3680
8.601000 0.3200 0.2950 0.2540 0.2280 0.2110
8.635146 0.1940 0.1720 0.1560 0.1450 0.1360
8.669000 0.1310 0.1290 0.1270 0.1290 0.1330
8.703146 0.1430 0.1560 0.1770 0.2010 0.2250
8.737000 0.2500 0.2730 0.3080 0.3360 0.3680
8.771146 0.3950 0.4210 0.4480 0.4690 0.5010
8.805000 0.5290 0.5510 0.5780 0.5950 0.6090
8.839146 0.6360 0.6450 0.6600 0.6680 0.6740
8.874000 0.6840 0.7010 0.7040 0.7180 0.7260
8.908146 0.7330 0.7380 0.7490 0.7520 0.7550
8.942000 0.7610 0.7670 0.7730 0.7780 0.7810
8.976146 0.7830 0.7830 0.7860 0.7880 0.7910
9.010000 0.7910 0.7910 0.7910 0.7910 0.7910
9.044146 0.7910 0.7910 0.7910 0.7910 0.7910
9.078000 0.7900 0.7900 0.7900 0.7880 0.7860
9.112146 0.7830 0.7790 0.7740 0.7690 0.7610
9.147000 0.7520 0.7420 0.7330 0.7200 0.7030
9.181146 0.6860 0.6620 0.6310 0.6020 0.5880
9.215000 0.5520 0.5250 0.5010 0.4840 0.4740
9.249146 0.4720 0.4740 0.4810 0.5060 0.5270
9.283000 0.5590 0.5920 0.6210 0.6450 0.6630
9.317146 0.6870 0.7040 0.7060 0.7300 0.7440
9.352000 0.7520 0.7610 0.7730 0.7840 0.7930
9.386146 0.7960 0.8000 0.8020 0.8050 0.8100
9.420000 0.8120 0.8130 0.8150 0.8150 0.8170
9.454146 0.8170 0.8190 0.8190 0.8190 0.8170
9.488000 0.8170 0.8170 0.8130 0.8100 0.8080
9.522146 0.8000 0.7980 0.7910 0.7880 0.7860
9.556000 0.7860 0.7840 0.7830 0.7830 0.7830
9.590146 0.7840 0.7900 0.7930 0.7960 0.7980
9.625000 0.8020 0.8030 0.8050 0.8070 0.8080
9.659146 0.8080 0.8120 0.8130 0.8150 0.8150
9.693000 0.8150 0.8170 0.8170 0.8170 0.8170
9.727146 0.8170 0.8170 0.8170 0.8170 0.8170
9.761000 0.8170 0.8150 0.8130 0.8080 0.8030
9.795146 0.8020 0.7930 0.7900 0.7860 0.7810
9.829000 0.7790 0.7690 0.7670 0.7610 0.7550
9.863146 0.7490 0.7440 0.7370 0.7350 0.7350
9.898000 0.7330 0.7330 0.7330 0.7350 0.7350
9.932146 0.7380 0.7420 0.7450 0.7490 0.7500
9.966000 0.7500 0.7540 0.7540 0.7540 0.7540
10.000146 0.7500 0.7500 0.7490 0.7470 0.7440
10.034000 0.7440 0.7400 0.7330 0.7260 0.7200
10.068146 0.7110 0.7030 0.6920 0.6820 0.6720
10.102000 0.6600 0.6480 0.6340 0.6190 0.6040
10.136146 0.5880 0.5710 0.5520 0.5320 0.5110
10.171000 0.4890 0.4640 0.4400 0.4140 0.3920
10.205146 0.3680 0.3460 0.3250 0.3070 0.2860
10.239000 0.2660 0.2520 0.2370 0.2250 0.2150
10.273146 0.2030 0.2010 0.1960 0.1940 0.1910
10.307000 0.1910 0.1920 0.1960 0.2010 0.2150
10.341146 0.2350 0.2540 0.2730 0.2910 0.3130
10.375000 0.3360 0.3580 0.3800 0.4020 0.4240
10.409146 0.4470 0.4650 0.4860 0.5030 0.5180
10.444000 0.5320 0.5490 0.5590 0.5710 0.5800
10.478146 0.5880 0.5980 0.6020 0.6100 0.6170
10.512000 0.6220 0.6240 0.6270 0.6270 0.6290
10.546146 0.6310 0.6330 0.6330 0.6310 0.6290
10.580000 0.6270 0.6260 0.6210 0.6140 0.6050
10.614146 0.6040 0.5980 0.5900 0.5800 0.5680
10.648000 0.5580 0.5470 0.5350 0.5250 0.5130
10.682146 0.5030 0.4890 0.4760 0.4690 0.4600
10.717000 0.4520 0.4500 0.4480 0.4500 0.4500
10.751146 0.4520 0.4550 0.4640 0.4770 0.4960
10.785000 0.5050 0.5180 0.5440 0.5540 0.5680
10.819146 0.5850 0.6050 0.6260 0.6390 0.6510
10.853000 0.6650 0.6800 0.6940 0.7080 0.7230
10.887146 0.7350 0.7470 0.7590 0.7690 0.7790
10.922000 0.7860 0.7930 0.7980 0.8070 0.8130
10.956146 0.8200 0.8240 0.8290 0.8320 0.8360
10.990000 0.8390 0.8440 0.8490 0.8540 0.8600
11.024146 0.8610 0.8650 0.8680 0.8700 0.8720
11.058000 0.8730 0.8780 0.8820 0.8830 0.8850
11.092146 0.8870 0.8870 0.8890 0.8920 0.8940
11.126000 0.8970 0.8990 0.8990 0.9010 0.9020
11.160146 0.9060 0.9060 0.9070 0.9090 0.9110
11.195000 0.9110 0.9110 0.9140 0.9140 0.9140
11.229146 0.9140 0.9140 0.9160 0.9160 0.9160
11.263000 0.9160 0.9160 0.9180 0.9180 0.9180
11.297146 0.9180 0.9190 0.9190 0.9190 0.9210
11.331000 0.9210 0.9210 0.9210 0.9230 0.9240
11.365146 0.9260 0.9260 0.9280 0.9280 0.9300
11.399000 0.9310 0.9330 0.9350 0.9360 0.9360
11.433146 0.9380 0.9400 0.9410 0.9410 0.9410
11.468000 0.9430 0.9430 0.9450 0.9450 0.9470
11.502146 0.9480 0.9480 0.9500 0.9520 0.9520
11.536000 0.9520 0.9530 0.9530 0.9550 0.9550
11.570146 0.9550 0.9550 0.9570 0.9550 0.9570
11.604000 0.9570 0.9590 0.9590 0.9590 0.9600
11.638146 0.9600 0.9600 0.9600 0.9620 0.9620
11.672000 0.9620 0.9620 0.9620 0.9620 0.9600
11.706146 0.9600 0.9600 0.9620 0.9620 0.9620
11.741000 0.9620 0.9620 0.9620 0.9620 0.9620
11.775146 0.9620 0.9620 0.9600 0.9600 0.9600
11.809000 0.9620 0.9620 0.9620 0.9620 0.9620
11.843146 0.9620 0.9620 0.9640 0.9640 0.9620
11.877000 0.9620 0.9620 0.9620 0.9620 0.9620
11.911146 0.9620 0.9620 0.9620 0.9620 0.9620
11.945000 0.9620 0.9620 0.9620 0.9620 0.9620
11.979146 0.9620 0.9620 0.9620 0.9590 0.9590
12.014000 0.9590 0.9590 0.9590 0.9600 0.9600
12.048146 0.9600 0.9600 0.9600 0.9600 0.9600
12.082000 0.9590 0.9590 0.9590 0.9590 0.9590
12.116146 0.9590 0.9590 0.9590 0.9590 0.9590
12.150000 0.9590 0.9590 0.9590 0.9600 0.9600
12.184146 0.9600 0.9600 0.9600 0.9600 0.9600
12.218000 0.9600 0.9600 0.9600 0.9600 0.9600
12.252146 0.9600 0.9600 0.9600 0.9600 0.9600
12.287000 0.9600 0.9600 0.9600 0.9600 0.9600
12.321146 0.9600 0.9600 0.9600 0.9600 0.9600
12.355000 0.9600 0.9600 0.9590 0.9590 0.9590
12.389146 0.9590 0.9590 0.9590 0.9590 0.9590
12.423000 0.9590 0.9570 0.9570 0.9550 0.9530
12.457146 0.9530 0.9520 0.9520 0.9500 0.9480
12.491000 0.9450 0.9450 0.9430 0.9430 0.9410
12.525146 0.9410 0.9410 0.9410 0.9410 0.9410
12.560000 0.9410 0.9410 0.9410 0.9410 0.9410
12.594146 0.9410 0.9410 0.9410 0.9410 0.9410
12.628000 0.9430 0.9430 0.9430 0.9430 0.9430
12.662146 0.9430 0.9430 0.9430 0.9430 0.9430
12.696000 0.9430 0.9430 0.9430 0.9430 0.9430
12.730146 0.9410 0.9410 0.9410 0.9410 0.9410
12.765000 0.9410 0.9410 0.9410 0.9410 0.9410
12.799146 0.9410 0.9410 0.9410 0.9410 0.9410
12.833000 0.9410 0.9410 0.9410 0.9410 0.9410
12.867146 0.9400 0.9400 0.9400 0.9400 0.9400
12.901000 0.9380 0.9380 0.9380 0.9380 0.9380
12.935146 0.9380 0.9380 0.9380 0.9380 0.9380
12.969000 0.9380 0.9380 0.9360 0.9360 0.9360
13.003146 0.9360 0.9360 0.9360 0.9360 0.9360
13.038000 0.9360 0.9360 0.9360 0.9350 0.9310
13.072146 0.9300 0.9300 0.9300 0.9300 0.9280
13.106000 0.9280 0.9280 0.9280 0.9280 0.9280
13.140146 0.9280 0.9280 0.9260 0.9240 0.9240
13.174000 0.9230 0.9210 0.9210 0.9210 0.9190
13.208146 0.9190 0.9190 0.9190 0.9180 0.9180
13.242000 0.9180 0.9180 0.9160 0.9140 0.9140
13.276146 0.9140 0.9140 0.9140 0.9140 0.9140
13.311000 0.9140 0.9120 0.9120 0.9110 0.9110
13.345146 0.9110 0.9110 0.9110 0.9110 0.9090
13.379000 0.9090 0.9090 0.9090 0.9090 0.9090
13.413146 0.9090 0.9090 0.9070 0.9060 0.9040
13.447000 0.9010 0.8990 0.8990 0.8950 0.8940
13.481146 0.8920 0.8920 0.8900 0.8900 0.8890
13.515000 0.8870 0.8850 0.8850 0.8830 0.8820
13.549146 0.8820 0.8800 0.8800 0.8780 0.8750
13.584000 0.8730 0.8720 0.8720 0.8700 0.8680
13.618146 0.8650 0.8600 0.8580 0.8560 0.8540
13.652000 0.8540 0.8530 0.8510 0.8490 0.8490
13.686146 0.8490 0.8490 0.8480 0.8480 0.8460
13.720000 0.8460 0.8460 0.8440 0.8430 0.8430
13.754146 0.8430 0.8390 0.8390 0.8370 0.8370
13.788000 0.8360 0.8340 0.8320 0.8310 0.8290
13.822146 0.8250 0.8250 0.8250 0.8250 0.8250
13.857000 0.8240 0.8240 0.8220 0.8220 0.8220
13.891146 0.8220 0.8220 0.8220 0.8220 0.8220
13.925000 0.8220 0.8220 0.8220 0.8220 0.8240
13.959146 0.8250 0.8270 0.8270 0.8270 0.8270
13.993000 0.8290 0.8270 0.8270 0.8270 0.8270
14.027146 0.8270 0.8270 0.8290 0.8290 0.8290
14.061000 0.8290 0.8310 0.8310 0.8310 0.8310
14.095146 0.8310 0.8310 0.8310 0.8310 0.8290
14.130000 0.8290 0.8290 0.8290 0.8290 0.8290
14.164146 0.8290 0.8290 0.8290 0.8290 0.8270
14.198000 0.8270 0.8270 0.8270 0.8270 0.8270
14.232146 0.8250 0.8250 0.8250 0.8250 0.8240
14.266000 0.8220 0.8220 0.8200 0.8200 0.8200
14.300146 0.8200 0.8200 0.8200 0.8200 0.8200
14.334000 0.8200 0.8190 0.8190 0.8190 0.8190
14.368146 0.8190 0.8170 0.8170 0.8150 0.8130
14.403000 0.8130 0.8120 0.8120 0.8100 0.8100
14.437146 0.8080 0.8070 0.8070 0.8070 0.8050
14.471000 0.8030 0.8030 0.8030 0.8020 0.8000
14.505146 0.8000 0.7980 0.7980 0.7980 0.7960
14.539000 0.7960 0.7950 0.7950 0.7950 0.7930
14.573146 0.7930 0.7910 0.7910 0.7900 0.7880
14.608000 0.7860 0.7840 0.7830 0.7830 0.7810
14.642146 0.7810 0.7790 0.7790 0.7790 0.7780
14.676000 0.7780 0.7760 0.7760 0.7760 0.7740
14.710146 0.7740 0.7740 0.7730 0.7730 0.7710
14.744000 0.7710 0.7710 0.7690 0.7690 0.7690
14.778146 0.7690 0.7670 0.7670 0.7660 0.7640
14.812000 0.7640 0.7620 0.7610 0.7590 0.7550
14.846146 0.7550 0.7540 0.7520 0.7520 0.7500
14.881000 0.7500 0.7490 0.7490 0.7470 0.7440
14.915146 0.7420 0.7400 0.7380 0.7380 0.7350
14.949000 0.7350 0.7330 0.7330 0.7330 0.7330
14.983146 0.7330 0.7320 0.7320 0.7320 0.7280
15.017000 0.7260 0.7230 0.7210 0.7200 0.7200
15.051146 0.7180 0.7180 0.7160 0.7150 0.7150
15.085000 0.7130 0.7130 0.7110 0.7090 0.7090
15.119146 0.7080 0.7080 0.7080 0.7060 0.7060
15.154000 0.7040 0.7040 0.7030 0.7030 0.7030
15.188146 0.7030 0.7010 0.7010 0.7010 0.6990
15.222000 0.6990 0.6970 0.6940 0.6940 0.6920
15.256146 0.6910 0.6910 0.6910 0.6890 0.6870
15.290000 0.6860 0.6820 0.6790 0.6790 0.6750
15.324146 0.6750 0.6750 0.6750 0.6740 0.6720
15.358000 0.6720 0.6720 0.6700 0.6700 0.6700
15.392146 0.6700 0.6700 0.6680 0.6680 0.6680
15.427000 0.6680 0.6680 0.6680 0.6680 0.6680
15.461146 0.6680 0.6680 0.6670 0.6650 0.6650
15.495000 0.6650 0.6630 0.6620 0.6620 0.6620
15.529146 0.6620 0.6600 0.6600 0.6600 0.6600
15.563000 0.6600 0.6580 0.6550 0.6510 0.6510
15.597146 0.6510 0.6510 0.6510 0.6510 0.6510
15.631000 0.6510 0.6500 0.6500 0.6500 0.6460
15.665146 0.6460 0.6460 0.6460 0.6460 0.6450
15.700000 0.6450 0.6450 0.6450 0.6450 0.6450
15.734146 0.6430 0.6430 0.6430 0.6430 0.6430
15.768000 0.6430 0.6430 0.6410 0.6410 0.6410
15.802146 0.6410 0.6390 0.6390 0.6390 0.6390
15.836000 0.6390 0.6390 0.6380 0.6380 0.6380
15.870146 0.6360 0.6340 0.6340 0.6340 0.6340
15.904000 0.6330 0.6330 0.6330 0.6330 0.6330
15.938146 0.6330 0.6330 0.6330 0.6330 0.6330
15.973000 0.6330 0.6330 0.6330 0.6330
##END=
