##TITLE=1,2-DIBROMOBUTANE
$$ E. K. CO. (WHITE LABEL)
##JCAMP-DX=4.24
##DATA TYPE=INFRARED SPECTRUM
##CLASS=COBLENTZ
##ORIGIN=WYANDOTTE CHEMICALS CORP., WYANDOTTE, MICHIGAN, USA
##OWNER=COBLENTZ SOCIETY
Collection (C) 2018 copyright by the U.S. Secretary of Commerce
on behalf of the United States of America. All rights reserved.
##DATE=Not specified, most likely prior to 1970
##CAS REGISTRY NO=533-98-2
##MOLFORM=C4 H8 Br2
##BP=165-166 C
##SOURCE REFERENCE=COBLENTZ NO. 2834
##$NIST SOURCE=COBLENTZ
##$NIST IMAGE=cob2834
##SPECTROMETER/DATA SYSTEM=Not specified, most likely a prism, grating, or hybrid spectrometer.
##STATE=LIQUID
##PATH LENGTH=0.003 CM
##SAMPLING PROCEDURE=TRANSMISSION
##RESOLUTION=4
##DATA PROCESSING=DIGITIZED BY NIST FROM HARD COPY
##XUNITS=MICROMETERS
##YUNITS=TRANSMITTANCE
##XFACTOR=1.000000
##YFACTOR=1
##DELTAX=000.006635
##FIRSTX=2.053
##LASTX=16.0069
##FIRSTY=0.971
##MAXX=16.0069
##MINX=2.053
##MAXY=0.99
##MINY=0.204
##NPOINTS=2104
##XYDATA=(X++(Y..Y))
2.053000 0.9710 0.9710 0.9700 0.9700 0.9680
2.086191 0.9680 0.9660 0.9560 0.9500 0.9480
2.119000 0.9410 0.9400 0.9380 0.9380 0.9360
2.152191 0.9360 0.9360 0.9360 0.9360 0.9360
2.186000 0.9360 0.9360 0.9360 0.9360 0.9380
2.219191 0.9380 0.9400 0.9400 0.9410 0.9410
2.252000 0.9410 0.9410 0.9430 0.9430 0.9450
2.285191 0.9450 0.9460 0.9480 0.9480 0.9500
2.318000 0.9500 0.9510 0.9510 0.9510 0.9530
2.351191 0.9530 0.9530 0.9530 0.9530 0.9550
2.385000 0.9550 0.9550 0.9550 0.9550 0.9550
2.418191 0.9550 0.9550 0.9550 0.9560 0.9580
2.451000 0.9580 0.9580 0.9600 0.9610 0.9630
2.484191 0.9660 0.9680 0.9700 0.9710 0.9710
2.518000 0.9730 0.9730 0.9750 0.9750 0.9760
2.551191 0.9780 0.9780 0.9780 0.9780 0.9780
2.584000 0.9780 0.9780 0.9760 0.9760 0.9750
2.617191 0.9750 0.9730 0.9730 0.9710 0.9710
2.650000 0.9710 0.9700 0.9700 0.9700 0.9700
2.683191 0.9700 0.9700 0.9700 0.9700 0.9700
2.717000 0.9700 0.9700 0.9700 0.9700 0.9700
2.750191 0.9680 0.9680 0.9660 0.9660 0.9650
2.783000 0.9650 0.9650 0.9650 0.9630 0.9630
2.816191 0.9630 0.9630 0.9610 0.9580 0.9580
2.849000 0.9550 0.9550 0.9530 0.9530 0.9510
2.882191 0.9500 0.9500 0.9500 0.9500 0.9500
2.916000 0.9500 0.9500 0.9500 0.9500 0.9500
2.949191 0.9500 0.9500 0.9480 0.9480 0.9480
2.982000 0.9480 0.9460 0.9460 0.9460 0.9450
3.015191 0.9450 0.9450 0.9450 0.9450 0.9450
3.048000 0.9430 0.9430 0.9410 0.9410 0.9400
3.081191 0.9400 0.9380 0.9360 0.9350 0.9330
3.115000 0.9330 0.9330 0.9330 0.9330 0.9330
3.148191 0.9330 0.9330 0.9330 0.9330 0.9310
3.181000 0.9300 0.9260 0.9250 0.9210 0.9180
3.214191 0.9100 0.9060 0.9000 0.8900 0.8820
3.247000 0.8730 0.8570 0.8280 0.8030 0.7790
3.280191 0.6410 0.5010 0.3620 0.2220 0.2200
3.314000 0.2220 0.2820 0.3880 0.4900 0.4900
3.347191 0.4400 0.4380 0.4400 0.4950 0.5340
3.380000 0.5890 0.6620 0.6640 0.6610 0.6360
3.413191 0.6090 0.6070 0.6090 0.6560 0.7170
3.446000 0.7740 0.7790 0.7790 0.7790 0.7800
3.479191 0.8250 0.8570 0.8770 0.8870 0.8970
3.513000 0.9100 0.9210 0.9330 0.9400 0.9430
3.546191 0.9450 0.9450 0.9480 0.9480 0.9480
3.579000 0.9480 0.9480 0.9460 0.9450 0.9430
3.612191 0.9430 0.9430 0.9410 0.9410 0.9430
3.645000 0.9480 0.9530 0.9560 0.9580 0.9600
3.678191 0.9630 0.9630 0.9650 0.9650 0.9660
3.712000 0.9660 0.9700 0.9700 0.9700 0.9700
3.745191 0.9700 0.9700 0.9700 0.9710 0.9710
3.778000 0.9710 0.9730 0.9750 0.9760 0.9760
3.811191 0.9760 0.9760 0.9760 0.9760 0.9760
3.845000 0.9760 0.9760 0.9750 0.9750 0.9750
3.878191 0.9750 0.9730 0.9730 0.9730 0.9730
3.911000 0.9750 0.9750 0.9750 0.9750 0.9750
3.944191 0.9750 0.9750 0.9750 0.9750 0.9730
3.977000 0.9730 0.9730 0.9710 0.9710 0.9710
4.010191 0.9710 0.9710 0.9710 0.9710 0.9710
4.044000 0.9710 0.9700 0.9700 0.9680 0.9680
4.077191 0.9680 0.9680 0.9680 0.9680 0.9680
4.110000 0.9680 0.9680 0.9680 0.9680 0.9680
4.143191 0.9680 0.9680 0.9700 0.9700 0.9700
4.176000 0.9700 0.9700 0.9700 0.9700 0.9730
4.209191 0.9730 0.9750 0.9780 0.9810 0.9850
4.243000 0.9860 0.9860 0.9860 0.9810 0.9800
4.276191 0.9780 0.9780 0.9760 0.9760 0.9750
4.309000 0.9730 0.9730 0.9730 0.9730 0.9730
4.342191 0.9750 0.9760 0.9800 0.9800 0.9810
4.375000 0.9810 0.9830 0.9830 0.9830 0.9830
4.408191 0.9830 0.9830 0.9830 0.9830 0.9830
4.442000 0.9810 0.9810 0.9810 0.9800 0.9780
4.475191 0.9780 0.9760 0.9760 0.9750 0.9730
4.508000 0.9730 0.9730 0.9750 0.9760 0.9810
4.541191 0.9830 0.9850 0.9850 0.9850 0.9860
4.574000 0.9880 0.9880 0.9880 0.9880 0.9880
4.607191 0.9880 0.9880 0.9880 0.9880 0.9880
4.641000 0.9880 0.9880 0.9880 0.9880 0.9900
4.674191 0.9900 0.9900 0.9900 0.9900 0.9900
4.707000 0.9900 0.9900 0.9900 0.9900 0.9900
4.740191 0.9900 0.9900 0.9900 0.9900 0.9900
4.773000 0.9880 0.9880 0.9880 0.9880 0.9880
4.806191 0.9880 0.9880 0.9880 0.9900 0.9900
4.840000 0.9900 0.9900 0.9900 0.9900 0.9900
4.873191 0.9900 0.9880 0.9880 0.9880 0.9880
4.906000 0.9880 0.9880 0.9880 0.9880 0.9880
4.939191 0.9860 0.9860 0.9860 0.9860 0.9860
4.973000 0.9860 0.9860 0.9850 0.9850 0.9830
5.006191 0.9830 0.9810 0.9800 0.9780 0.9780
5.039000 0.9780 0.9780 0.9800 0.9810 0.9810
5.072191 0.9810 0.9810 0.9830 0.9830 0.9830
5.105000 0.9830 0.9830 0.9850 0.9850 0.9850
5.138191 0.9850 0.9850 0.9850 0.9850 0.9850
5.172000 0.9850 0.9850 0.9850 0.9850 0.9850
5.205191 0.9850 0.9850 0.9850 0.9850 0.9850
5.238000 0.9850 0.9850 0.9850 0.9850 0.9850
5.271191 0.9850 0.9830 0.9830 0.9830 0.9830
5.304000 0.9810 0.9810 0.9810 0.9810 0.9800
5.337191 0.9800 0.9800 0.9780 0.9780 0.9780
5.371000 0.9780 0.9780 0.9780 0.9780 0.9800
5.404191 0.9800 0.9800 0.9800 0.9800 0.9800
5.437000 0.9800 0.9800 0.9800 0.9800 0.9800
5.470191 0.9810 0.9810 0.9810 0.9810 0.9810
5.503000 0.9810 0.9810 0.9810 0.9800 0.9800
5.536191 0.9800 0.9800 0.9800 0.9780 0.9780
5.570000 0.9780 0.9780 0.9800 0.9800 0.9800
5.603191 0.9800 0.9800 0.9800 0.9800 0.9800
5.636000 0.9800 0.9800 0.9760 0.9750 0.9750
5.669191 0.9730 0.9710 0.9700 0.9700 0.9680
5.702000 0.9660 0.9650 0.9630 0.9610 0.9580
5.735191 0.9550 0.9480 0.9460 0.9430 0.9430
5.769000 0.9430 0.9430 0.9450 0.9460 0.9500
5.802191 0.9510 0.9530 0.9530 0.9550 0.9550
5.835000 0.9550 0.9550 0.9550 0.9530 0.9530
5.868191 0.9510 0.9500 0.9480 0.9460 0.9450
5.901000 0.9450 0.9430 0.9430 0.9410 0.9400
5.934191 0.9400 0.9380 0.9380 0.9360 0.9360
5.968000 0.9360 0.9360 0.9360 0.9350 0.9350
6.001191 0.9350 0.9330 0.9310 0.9260 0.9250
6.034000 0.9230 0.9230 0.9230 0.9230 0.9230
6.067191 0.9210 0.9200 0.9200 0.9180 0.9160
6.100000 0.9150 0.9150 0.9130 0.9110 0.9100
6.133191 0.9050 0.9030 0.9010 0.9000 0.8970
6.167000 0.8950 0.8900 0.8880 0.8880 0.8900
6.200191 0.8920 0.8950 0.9000 0.9050 0.9100
6.233000 0.9110 0.9130 0.9150 0.9160 0.9160
6.266191 0.9160 0.9150 0.9130 0.9100 0.9030
6.300000 0.9010 0.9000 0.9000 0.8980 0.8970
6.333191 0.8920 0.8820 0.8770 0.8730 0.8720
6.366000 0.8730 0.8800 0.8850 0.8900 0.8930
6.399191 0.8970 0.9000 0.9030 0.9050 0.9080
6.432000 0.9100 0.9130 0.9160 0.9210 0.9230
6.465191 0.9230 0.9260 0.9300 0.9310 0.9310
6.499000 0.9310 0.9310 0.9300 0.9300 0.9280
6.532191 0.9260 0.9260 0.9250 0.9230 0.9230
6.565000 0.9230 0.9210 0.9200 0.9180 0.9150
6.598191 0.9110 0.9080 0.9060 0.9050 0.9030
6.631000 0.9010 0.9000 0.8970 0.8920 0.8850
6.664191 0.8750 0.8730 0.8650 0.8600 0.8550
6.698000 0.8470 0.8450 0.8250 0.8080 0.7900
6.731191 0.7400 0.6770 0.6390 0.5990 0.5140
6.764000 0.4230 0.3920 0.3580 0.3180 0.3170
6.797191 0.3170 0.3200 0.3700 0.3880 0.4260
6.830000 0.4450 0.4630 0.4780 0.4910 0.4910
6.863191 0.4880 0.4510 0.4250 0.4050 0.3950
6.897000 0.3850 0.3630 0.3300 0.2990 0.2970
6.930191 0.2990 0.3550 0.4650 0.5140 0.5640
6.963000 0.5890 0.5980 0.5980 0.6260 0.6470
6.996191 0.6720 0.6940 0.7170 0.7450 0.7690
7.029000 0.7750 0.7850 0.7950 0.8150 0.8220
7.062191 0.8280 0.8330 0.8370 0.8380 0.8380
7.096000 0.8400 0.8400 0.8380 0.8330 0.8270
7.129191 0.8130 0.8030 0.7990 0.7920 0.7550
7.162000 0.6740 0.5990 0.5240 0.5040 0.4980
7.195191 0.4960 0.4980 0.5430 0.5890 0.6710
7.228000 0.7190 0.7470 0.7720 0.7890 0.8220
7.261191 0.8250 0.8270 0.8280 0.8300 0.8300
7.295000 0.8320 0.8320 0.8320 0.8300 0.8250
7.328191 0.8220 0.8180 0.8100 0.8080 0.8100
7.361000 0.8270 0.8450 0.8550 0.8630 0.8670
7.394191 0.8700 0.8730 0.8750 0.8770 0.8770
7.427000 0.8750 0.8730 0.8720 0.8700 0.8700
7.460191 0.8680 0.8670 0.8670 0.8650 0.8630
7.494000 0.8630 0.8630 0.8620 0.8600 0.8530
7.527191 0.8470 0.8370 0.8330 0.8300 0.8270
7.560000 0.8230 0.8200 0.8150 0.8070 0.7990
7.593191 0.7900 0.7670 0.7350 0.6890 0.6290
7.627000 0.6170 0.6160 0.6170 0.6290 0.6510
7.660191 0.6740 0.6840 0.6960 0.7000 0.7040
7.693000 0.7040 0.7070 0.7090 0.7140 0.7170
7.726191 0.7200 0.7220 0.7220 0.7220 0.7220
7.759000 0.7200 0.7100 0.6940 0.6740 0.6510
7.792191 0.6290 0.6060 0.6010 0.5960 0.5790
7.826000 0.5780 0.5790 0.6260 0.6440 0.6610
7.859191 0.6720 0.6860 0.6990 0.7150 0.7350
7.892000 0.7600 0.7900 0.8080 0.8200 0.8230
7.925191 0.8270 0.8280 0.8320 0.8320 0.8300
7.958000 0.8250 0.8200 0.8120 0.8030 0.7950
7.991191 0.7740 0.7440 0.7140 0.6660 0.6190
8.025000 0.5990 0.5780 0.5380 0.5030 0.4730
8.058191 0.4450 0.4230 0.4050 0.3970 0.3880
8.091000 0.3720 0.3700 0.3720 0.3900 0.4330
8.124191 0.4530 0.4750 0.4960 0.5140 0.5340
8.157000 0.5510 0.5680 0.5830 0.5940 0.6090
8.190191 0.6120 0.6120 0.6160 0.6220 0.6270
8.224000 0.6310 0.6320 0.6340 0.6340 0.6310
8.257191 0.6120 0.6060 0.5980 0.5790 0.5610
8.290000 0.5430 0.5240 0.5080 0.4930 0.4910
8.323191 0.4930 0.5000 0.5060 0.5280 0.5410
8.356000 0.5540 0.5660 0.5790 0.5960 0.6170
8.389191 0.6170 0.6090 0.5990 0.5810 0.5790
8.423000 0.5830 0.6440 0.6690 0.6990 0.7240
8.456191 0.7400 0.7500 0.7590 0.7640 0.7650
8.489000 0.7670 0.7670 0.7640 0.7590 0.7490
8.522191 0.7420 0.7370 0.7270 0.7000 0.6570
8.555000 0.6160 0.6060 0.5780 0.5490 0.4800
8.588191 0.4460 0.4130 0.3970 0.3800 0.3780
8.622000 0.2690 0.2470 0.2100 0.2050 0.2040
8.655191 0.2050 0.2290 0.2640 0.2950 0.3280
8.688000 0.3630 0.4360 0.4730 0.5090 0.5440
8.721191 0.5780 0.6390 0.6660 0.6890 0.7070
8.755000 0.7200 0.7290 0.7450 0.7520 0.7570
8.788191 0.7590 0.7640 0.7700 0.7770 0.7770
8.821000 0.7800 0.7800 0.7770 0.7590 0.7420
8.854191 0.7240 0.7040 0.7020 0.7020 0.7040
8.887000 0.7100 0.7250 0.7500 0.7690 0.7790
8.920191 0.7950 0.8080 0.8120 0.8150 0.8150
8.954000 0.8150 0.8170 0.8170 0.8180 0.8180
8.987191 0.8200 0.8220 0.8230 0.8230 0.8230
9.020000 0.8230 0.8080 0.8050 0.8030 0.8020
9.053191 0.8020 0.8070 0.8130 0.8200 0.8250
9.086000 0.8320 0.8400 0.8430 0.8450 0.8480
9.119191 0.8500 0.8500 0.8520 0.8530 0.8550
9.153000 0.8570 0.8580 0.8580 0.8580 0.8580
9.186191 0.8580 0.8580 0.8580 0.8580 0.8580
9.219000 0.8580 0.8550 0.8520 0.8520 0.8480
9.252191 0.8400 0.8370 0.8330 0.8280 0.8220
9.285000 0.8120 0.8020 0.7970 0.7920 0.7800
9.318191 0.7700 0.7590 0.7450 0.7240 0.7090
9.352000 0.6940 0.6790 0.6770 0.6770 0.6810
9.385191 0.7000 0.7200 0.7400 0.7590 0.7770
9.418000 0.7900 0.7990 0.8100 0.8170 0.8220
9.451191 0.8270 0.8320 0.8350 0.8380 0.8400
9.484000 0.8420 0.8420 0.8400 0.8330 0.8300
9.517191 0.8280 0.8200 0.8100 0.8020 0.7970
9.551000 0.7920 0.7840 0.7770 0.7700 0.7690
9.584191 0.7670 0.7670 0.7690 0.7740 0.7800
9.617000 0.7870 0.7970 0.8130 0.8200 0.8270
9.650191 0.8300 0.8350 0.8400 0.8450 0.8500
9.683000 0.8550 0.8580 0.8630 0.8650 0.8680
9.716191 0.8680 0.8700 0.8700 0.8670 0.8670
9.750000 0.8650 0.8630 0.8630 0.8630 0.8630
9.783191 0.8650 0.8670 0.8700 0.8700 0.8720
9.816000 0.8720 0.8720 0.8730 0.8730 0.8780
9.849191 0.8780 0.8780 0.8750 0.8700 0.8630
9.882000 0.8600 0.8570 0.8550 0.8550 0.8550
9.915191 0.8580 0.8580 0.8620 0.8650 0.8680
9.949000 0.8680 0.8670 0.8630 0.8630 0.8620
9.982191 0.8580 0.8580 0.8570 0.8570 0.8570
10.015000 0.8600 0.8600 0.8620 0.8630 0.8650
10.048191 0.8670 0.8700 0.8720 0.8720 0.8720
10.082000 0.8720 0.8720 0.8700 0.8680 0.8650
10.115191 0.8630 0.8600 0.8580 0.8530 0.8480
10.148000 0.8400 0.8350 0.8300 0.8280 0.8270
10.181191 0.8250 0.8230 0.8230 0.8250 0.8270
10.214000 0.8280 0.8320 0.8370 0.8380 0.8450
10.247191 0.8520 0.8580 0.8620 0.8630 0.8670
10.281000 0.8680 0.8700 0.8720 0.8750 0.8770
10.314191 0.8800 0.8820 0.8830 0.8830 0.8870
10.347000 0.8880 0.8880 0.8870 0.8850 0.8830
10.380191 0.8800 0.8770 0.8770 0.8770 0.8780
10.413000 0.8820 0.8870 0.8920 0.8970 0.9000
10.446191 0.9010 0.9030 0.9030 0.9050 0.9050
10.480000 0.9050 0.9050 0.9050 0.9050 0.9010
10.513191 0.9000 0.8970 0.8970 0.8950 0.8900
10.546000 0.8880 0.8880 0.8880 0.8900 0.8900
10.579191 0.8930 0.8950 0.8970 0.8980 0.8980
10.612000 0.8970 0.8970 0.8950 0.8950 0.8930
10.645191 0.8920 0.8870 0.8850 0.8820 0.8780
10.679000 0.8750 0.8720 0.8700 0.8680 0.8650
10.712191 0.8600 0.8570 0.8520 0.8480 0.8450
10.745000 0.8380 0.8320 0.8250 0.8170 0.8070
10.778191 0.8000 0.7940 0.7740 0.7470 0.7120
10.811000 0.6670 0.6340 0.6090 0.5980 0.5840
10.844191 0.5630 0.5490 0.5480 0.5490 0.5610
10.878000 0.5790 0.5960 0.6340 0.6560 0.6770
10.911191 0.6960 0.7090 0.7190 0.7200 0.7240
10.944000 0.7250 0.7240 0.7190 0.7100 0.7000
10.977191 0.6820 0.6620 0.6390 0.6210 0.6090
11.010000 0.6040 0.5980 0.5940 0.5930 0.5930
11.043191 0.6240 0.6370 0.6490 0.6590 0.6670
11.077000 0.6770 0.6860 0.6940 0.7020 0.7120
11.110191 0.7200 0.7320 0.7440 0.7590 0.7740
11.143000 0.7820 0.7890 0.7950 0.8070 0.8130
11.176191 0.8180 0.8230 0.8280 0.8330 0.8370
11.209000 0.8400 0.8420 0.8430 0.8450 0.8480
11.242191 0.8520 0.8520 0.8520 0.8520 0.8520
11.276000 0.8500 0.8470 0.8400 0.8330 0.8230
11.309191 0.8150 0.8070 0.8000 0.7970 0.7920
11.342000 0.7770 0.7740 0.7740 0.7750 0.7790
11.375191 0.7840 0.7870 0.7890 0.7890 0.7950
11.409000 0.7970 0.7990 0.7990 0.8000 0.8020
11.442191 0.8030 0.8050 0.8080 0.8100 0.8130
11.475000 0.8180 0.8230 0.8300 0.8370 0.8430
11.508191 0.8520 0.8620 0.8650 0.8700 0.8730
11.541000 0.8800 0.8850 0.8880 0.8920 0.8930
11.574191 0.8970 0.8980 0.9000 0.9010 0.9030
11.608000 0.9050 0.9060 0.9080 0.9100 0.9100
11.641191 0.9110 0.9110 0.9130 0.9130 0.9130
11.674000 0.9130 0.9130 0.9110 0.9110 0.9100
11.707191 0.9100 0.9100 0.9100 0.9100 0.9110
11.740000 0.9130 0.9130 0.9130 0.9130 0.9150
11.773191 0.9150 0.9160 0.9160 0.9160 0.9150
11.807000 0.9130 0.9110 0.9080 0.9060 0.9030
11.840191 0.9010 0.9010 0.9010 0.9000 0.9000
11.873000 0.8980 0.8980 0.8970 0.8950 0.8950
11.906191 0.8930 0.8920 0.8870 0.8850 0.8850
11.939000 0.8850 0.8870 0.8870 0.8880 0.8880
11.972191 0.8900 0.8900 0.8930 0.8930 0.8950
12.006000 0.8950 0.8970 0.8970 0.8980 0.8980
12.039191 0.9000 0.9000 0.9000 0.9000 0.9000
12.072000 0.8980 0.8980 0.8970 0.8970 0.8950
12.105191 0.8950 0.8930 0.8930 0.8930 0.8920
12.138000 0.8920 0.8900 0.8900 0.8880 0.8880
12.171191 0.8870 0.8850 0.8820 0.8820 0.8780
12.205000 0.8780 0.8720 0.8680 0.8650 0.8620
12.238191 0.8600 0.8580 0.8550 0.8500 0.8450
12.271000 0.8400 0.8350 0.8300 0.8230 0.8150
12.304191 0.8050 0.8020 0.7970 0.7850 0.7750
12.337000 0.7640 0.7540 0.7400 0.7290 0.7150
12.370191 0.7000 0.6860 0.6710 0.6560 0.6370
12.404000 0.6210 0.6010 0.5930 0.5830 0.5610
12.437191 0.5390 0.5160 0.4950 0.4760 0.4550
12.470000 0.4410 0.4330 0.4260 0.4200 0.4180
12.503191 0.4160 0.4160 0.4200 0.4400 0.4530
12.536000 0.4700 0.4810 0.4950 0.5090 0.5190
12.569191 0.5280 0.5290 0.5310 0.5330 0.5310
12.603000 0.5290 0.5280 0.5230 0.5190 0.5180
12.636191 0.5160 0.5140 0.5160 0.5210 0.5260
12.669000 0.5430 0.5590 0.5740 0.5910 0.6210
12.702191 0.6340 0.6490 0.6620 0.6760 0.6890
12.736000 0.7020 0.7140 0.7240 0.7350 0.7450
12.769191 0.7550 0.7640 0.7720 0.7790 0.7850
12.802000 0.7920 0.7990 0.8150 0.8230 0.8300
12.835191 0.8370 0.8400 0.8450 0.8500 0.8550
12.868000 0.8580 0.8620 0.8620 0.8630 0.8670
12.901191 0.8700 0.8750 0.8750 0.8780 0.8800
12.935000 0.8800 0.8820 0.8830 0.8830 0.8850
12.968191 0.8870 0.8870 0.8870 0.8870 0.8870
13.001000 0.8870 0.8870 0.8870 0.8850 0.8850
13.034191 0.8850 0.8850 0.8850 0.8850 0.8830
13.067000 0.8830 0.8830 0.8830 0.8830 0.8830
13.100191 0.8830 0.8850 0.8850 0.8850 0.8870
13.134000 0.8870 0.8870 0.8870 0.8880 0.8880
13.167191 0.8880 0.8900 0.8900 0.8900 0.8920
13.200000 0.8920 0.8920 0.8930 0.8930 0.8930
13.233191 0.8950 0.8950 0.8950 0.8950 0.8950
13.266000 0.8950 0.8950 0.8950 0.8950 0.8970
13.299191 0.8970 0.8970 0.8980 0.8980 0.8980
13.333000 0.9000 0.9000 0.9010 0.9010 0.9030
13.366191 0.9030 0.9050 0.9050 0.9050 0.9060
13.399000 0.9060 0.9080 0.9100 0.9100 0.9100
13.432191 0.9100 0.9110 0.9110 0.9110 0.9130
13.465000 0.9130 0.9130 0.9150 0.9150 0.9160
13.498191 0.9160 0.9160 0.9180 0.9180 0.9180
13.532000 0.9180 0.9180 0.9200 0.9200 0.9210
13.565191 0.9210 0.9230 0.9230 0.9230 0.9250
13.598000 0.9250 0.9260 0.9260 0.9260 0.9260
13.631191 0.9280 0.9280 0.9280 0.9280 0.9280
13.664000 0.9280 0.9260 0.9260 0.9260 0.9250
13.697191 0.9230 0.9230 0.9230 0.9230 0.9210
13.731000 0.9210 0.9210 0.9210 0.9210 0.9210
13.764191 0.9210 0.9210 0.9210 0.9230 0.9230
13.797000 0.9230 0.9230 0.9230 0.9230 0.9230
13.830191 0.9210 0.9210 0.9200 0.9200 0.9180
13.864000 0.9180 0.9160 0.9160 0.9160 0.9150
13.897191 0.9150 0.9150 0.9150 0.9130 0.9130
13.930000 0.9130 0.9130 0.9130 0.9130 0.9110
13.963191 0.9110 0.9110 0.9110 0.9110 0.9110
13.996000 0.9110 0.9110 0.9100 0.9100 0.9100
14.029191 0.9080 0.9080 0.9080 0.9080 0.9080
14.063000 0.9080 0.9080 0.9080 0.9080 0.9060
14.096191 0.9060 0.9060 0.9060 0.9060 0.9060
14.129000 0.9060 0.9060 0.9060 0.9060 0.9060
14.162191 0.9060 0.9050 0.9050 0.9050 0.9050
14.195000 0.9050 0.9050 0.9050 0.9050 0.9060
14.228191 0.9060 0.9060 0.9060 0.9060 0.9060
14.262000 0.9060 0.9060 0.9060 0.9060 0.9060
14.295191 0.9060 0.9060 0.9050 0.9050 0.9050
14.328000 0.9030 0.9030 0.9010 0.9010 0.9000
14.361191 0.9000 0.9000 0.8980 0.8980 0.8970
14.394000 0.8970 0.8970 0.8970 0.8970 0.8970
14.427191 0.8970 0.8930 0.8930 0.8920 0.8920
14.461000 0.8900 0.8880 0.8870 0.8850 0.8830
14.494191 0.8820 0.8820 0.8820 0.8800 0.8800
14.527000 0.8780 0.8780 0.8770 0.8770 0.8750
14.560191 0.8730 0.8730 0.8720 0.8700 0.8670
14.593000 0.8670 0.8650 0.8650 0.8630 0.8620
14.626191 0.8620 0.8600 0.8580 0.8580 0.8570
14.660000 0.8550 0.8530 0.8520 0.8500 0.8480
14.693191 0.8450 0.8430 0.8420 0.8420 0.8420
14.726000 0.8400 0.8400 0.8400 0.8380 0.8380
14.759191 0.8370 0.8370 0.8370 0.8370 0.8370
14.792000 0.8380 0.8380 0.8420 0.8420 0.8420
14.825191 0.8400 0.8370 0.8350 0.8330 0.8330
14.859000 0.8320 0.8320 0.8320 0.8300 0.8280
14.892191 0.8270 0.8250 0.8250 0.8230 0.8230
14.925000 0.8220 0.8200 0.8180 0.8170 0.8130
14.958191 0.8120 0.8080 0.8030 0.8020 0.7990
14.991000 0.7940 0.7890 0.7850 0.7800 0.7750
15.024191 0.7700 0.7690 0.7690 0.7640 0.7600
15.058000 0.7570 0.7550 0.7520 0.7500 0.7490
15.091191 0.7470 0.7440 0.7420 0.7420 0.7400
15.124000 0.7390 0.7370 0.7370 0.7350 0.7340
15.157191 0.7320 0.7320 0.7320 0.7320 0.7320
15.191000 0.7320 0.7340 0.7340 0.7340 0.7340
15.224191 0.7350 0.7370 0.7370 0.7400 0.7420
15.257000 0.7440 0.7470 0.7470 0.7470 0.7470
15.290191 0.7470 0.7470 0.7450 0.7450 0.7440
15.323000 0.7440 0.7420 0.7420 0.7420 0.7420
15.356191 0.7420 0.7400 0.7400 0.7400 0.7400
15.390000 0.7390 0.7390 0.7370 0.7350 0.7300
15.423191 0.7270 0.7250 0.7200 0.7190 0.7150
15.456000 0.7120 0.7090 0.7070 0.7040 0.7020
15.489191 0.6990 0.6940 0.6890 0.6870 0.6860
15.522000 0.6860 0.6840 0.6820 0.6810 0.6790
15.555191 0.6770 0.6760 0.6760 0.6760 0.6760
15.589000 0.6790 0.6820 0.6860 0.6890 0.6920
15.622191 0.6960 0.6990 0.7040 0.7070 0.7120
15.655000 0.7150 0.7200 0.7270 0.7320 0.7390
15.688191 0.7420 0.7440 0.7470 0.7500 0.7550
15.721000 0.7570 0.7570 0.7600 0.7650 0.7720
15.754191 0.7750 0.7790 0.7790 0.7800 0.7820
15.788000 0.7850 0.7870 0.7890 0.7890 0.7900
15.821191 0.7900 0.7900 0.7900 0.7900 0.7900
15.854000 0.7900 0.7920 0.7920 0.7940 0.7940
15.887191 0.7950 0.7950 0.7950 0.7970 0.8000
15.920000 0.8020 0.8020 0.8020 0.8000 0.8000
15.953191 0.8000 0.7990 0.7990 0.7970 0.7970
15.987000 0.7970 0.7990 0.7970 0.7970
##END=
