##TITLE=2-CHLOROPROPENE
##JCAMP-DX=4.24
##DATA TYPE=INFRARED SPECTRUM
##CLASS=COBLENTZ
##ORIGIN=W.T. BOLLETER
##OWNER=COBLENTZ SOCIETY
Collection (C) 2018 copyright by the U.S. Secretary of Commerce
on behalf of the United States of America. All rights reserved.
##DATE=Not specified, most likely prior to 1970
##NAMES=2-chloro-1-propene
##CAS REGISTRY NO=557-98-2
##MOLFORM=C3 H5 Cl
##SOURCE REFERENCE=COBLENTZ NO. 4486
##$NIST SOURCE=COBLENTZ
##$NIST IMAGE=cob4486
##SPECTROMETER/DATA SYSTEM=Not specified, most likely a prism, grating, or hybrid spectrometer.
##PATH LENGTH=0.0025 CM
##SAMPLING PROCEDURE=TRANSMISSION
##RESOLUTION=4
##DATA PROCESSING=DIGITIZED BY NIST FROM HARD COPY
##XUNITS=MICROMETERS
##YUNITS=TRANSMITTANCE
##XFACTOR=1.000000
##YFACTOR=1
##DELTAX=000.017608
##FIRSTX=14.528
##LASTX=37.9998
##FIRSTY=0.557
##MAXX=37.9998
##MINX=14.528
##MAXY=0.962
##MINY=0.048
##NPOINTS=1334
##XYDATA=(X++(Y..Y))
14.528000 0.5570 0.5570 0.5570 0.5510 0.5500
14.616107 0.5480 0.5440 0.5370 0.5280 0.5250
14.704000 0.5160 0.5080 0.5030 0.5000 0.4870
14.792107 0.4800 0.4710 0.4600 0.4490 0.4350
14.880000 0.4210 0.4050 0.3940 0.3850 0.3780
14.968107 0.3580 0.3450 0.3360 0.3150 0.2970
15.056000 0.2880 0.2720 0.2560 0.2430 0.2250
15.144107 0.2150 0.1980 0.1840 0.1730 0.1680
15.233000 0.1610 0.1520 0.1460 0.1320 0.1120
15.321107 0.1110 0.1030 0.1020 0.1000 0.0960
15.409000 0.0940 0.0910 0.0870 0.0800 0.0730
15.497107 0.0680 0.0620 0.0590 0.0570 0.0550
15.585000 0.0510 0.0510 0.0500 0.0500 0.0500
15.673107 0.0500 0.0480 0.0480 0.0480 0.0480
15.761000 0.0480 0.0480 0.0500 0.0500 0.0510
15.849107 0.0510 0.0510 0.0530 0.0530 0.0550
15.937000 0.0570 0.0590 0.0620 0.0640 0.0710
16.025107 0.0770 0.0840 0.0930 0.1020 0.1110
16.113000 0.1160 0.1200 0.1230 0.1290 0.1370
16.201107 0.1520 0.1700 0.1770 0.1970 0.2130
16.289000 0.2270 0.2450 0.2540 0.2790 0.2950
16.377107 0.3020 0.3200 0.3330 0.3470 0.3560
16.465000 0.3720 0.3850 0.4060 0.4280 0.4370
16.553107 0.4480 0.4530 0.4620 0.4760 0.4890
16.641000 0.5000 0.5080 0.5140 0.5260 0.5390
16.729107 0.5500 0.5590 0.5730 0.5840 0.6000
16.817000 0.6110 0.6210 0.6360 0.6460 0.6500
16.905107 0.6570 0.6680 0.6770 0.6820 0.6880
16.993000 0.6980 0.7040 0.7110 0.7200 0.7220
17.081107 0.7250 0.7270 0.7290 0.7310 0.7340
17.169000 0.7400 0.7450 0.7490 0.7500 0.7520
17.257107 0.7560 0.7580 0.7610 0.7630 0.7670
17.346000 0.7700 0.7740 0.7750 0.7750 0.7790
17.434107 0.7830 0.7840 0.7860 0.7900 0.7930
17.522000 0.7930 0.7970 0.7990 0.8010 0.8020
17.610107 0.8060 0.8080 0.8100 0.8110 0.8150
17.698000 0.8170 0.8180 0.8220 0.8240 0.8260
17.786107 0.8270 0.8290 0.8290 0.8330 0.8330
17.874000 0.8350 0.8350 0.8350 0.8360 0.8360
17.962107 0.8360 0.8360 0.8360 0.8350 0.8290
18.050000 0.8260 0.8200 0.8180 0.8150 0.8130
18.138107 0.8100 0.8020 0.7970 0.7950 0.7930
18.226000 0.7900 0.7860 0.7860 0.7840 0.7840
18.314107 0.7840 0.7830 0.7830 0.7830 0.7840
18.402000 0.7860 0.7900 0.7930 0.7950 0.7990
18.490107 0.8020 0.8100 0.8170 0.8220 0.8220
18.578000 0.8270 0.8310 0.8330 0.8380 0.8490
18.666107 0.8510 0.8540 0.8600 0.8620 0.8630
18.754000 0.8650 0.8690 0.8700 0.8700 0.8720
18.842107 0.8720 0.8740 0.8760 0.8790 0.8790
18.930000 0.8810 0.8810 0.8830 0.8830 0.8850
19.018107 0.8870 0.8870 0.8870 0.8880 0.8880
19.106000 0.8880 0.8880 0.8900 0.8900 0.8900
19.194107 0.8900 0.8900 0.8880 0.8880 0.8880
19.282000 0.8880 0.8880 0.8880 0.8880 0.8870
19.370107 0.8850 0.8850 0.8850 0.8830 0.8830
19.459000 0.8830 0.8830 0.8810 0.8790 0.8780
19.547107 0.8760 0.8740 0.8720 0.8700 0.8700
19.635000 0.8690 0.8690 0.8690 0.8670 0.8650
19.723107 0.8620 0.8600 0.8540 0.8530 0.8530
19.811000 0.8510 0.8510 0.8510 0.8490 0.8490
19.899107 0.8440 0.8420 0.8400 0.8400 0.8380
19.987000 0.8360 0.8350 0.8330 0.8290 0.8260
20.075107 0.8240 0.8220 0.8180 0.8150 0.8130
20.163000 0.8110 0.8040 0.8020 0.7990 0.7990
20.251107 0.7970 0.7950 0.7900 0.7860 0.7860
20.339000 0.7840 0.7830 0.7830 0.7810 0.7790
20.427107 0.7770 0.7770 0.7750 0.7740 0.7740
20.515000 0.7720 0.7700 0.7680 0.7670 0.7670
20.603107 0.7670 0.7670 0.7670 0.7650 0.7630
20.691000 0.7610 0.7590 0.7590 0.7580 0.7580
20.779107 0.7580 0.7580 0.7580 0.7560 0.7560
20.867000 0.7540 0.7520 0.7520 0.7500 0.7490
20.955107 0.7490 0.7470 0.7450 0.7450 0.7430
21.043000 0.7410 0.7410 0.7400 0.7380 0.7380
21.131107 0.7360 0.7360 0.7340 0.7320 0.7310
21.219000 0.7290 0.7270 0.7270 0.7270 0.7240
21.307107 0.7220 0.7150 0.7110 0.7090 0.7070
21.395000 0.7020 0.7020 0.7000 0.6970 0.6910
21.483107 0.6880 0.6820 0.6750 0.6720 0.6700
21.572000 0.6640 0.6630 0.6590 0.6550 0.6520
21.660107 0.6500 0.6390 0.6340 0.6290 0.6210
21.748000 0.6140 0.6030 0.6000 0.5980 0.5870
21.836107 0.5800 0.5730 0.5680 0.5600 0.5550
21.924000 0.5500 0.5460 0.5390 0.5320 0.5210
22.012107 0.5070 0.5000 0.4870 0.4830 0.4760
22.100000 0.4640 0.4530 0.4490 0.4390 0.4310
22.188107 0.4150 0.4010 0.3960 0.3810 0.3760
22.276000 0.3630 0.3540 0.3470 0.3350 0.3240
22.364107 0.3150 0.3020 0.2880 0.2790 0.2700
22.452000 0.2630 0.2490 0.2360 0.2320 0.2250
22.540107 0.2160 0.2040 0.1980 0.1890 0.1860
22.628000 0.1810 0.1730 0.1700 0.1660 0.1630
22.716107 0.1570 0.1540 0.1520 0.1500 0.1460
22.804000 0.1450 0.1410 0.1390 0.1360 0.1320
22.892107 0.1270 0.1250 0.1230 0.1230 0.1230
22.980000 0.1230 0.1230 0.1230 0.1230 0.1250
23.068107 0.1250 0.1270 0.1290 0.1300 0.1360
23.156000 0.1390 0.1430 0.1500 0.1570 0.1640
23.244107 0.1660 0.1730 0.1770 0.1790 0.1840
23.332000 0.1970 0.2000 0.2060 0.2180 0.2290
23.420107 0.2400 0.2490 0.2500 0.2590 0.2670
23.508000 0.2810 0.2930 0.3060 0.3130 0.3200
23.596107 0.3290 0.3470 0.3540 0.3700 0.3790
23.685000 0.3880 0.4010 0.4060 0.4220 0.4310
23.773107 0.4440 0.4490 0.4560 0.4670 0.4800
23.861000 0.5000 0.5030 0.5080 0.5140 0.5210
23.949107 0.5260 0.5300 0.5390 0.5460 0.5550
24.037000 0.5620 0.5680 0.5690 0.5730 0.5770
24.125107 0.5820 0.5870 0.5930 0.5980 0.6000
24.213000 0.6020 0.6050 0.6110 0.6120 0.6140
24.301107 0.6180 0.6200 0.6210 0.6250 0.6250
24.389000 0.6250 0.6270 0.6270 0.6270 0.6290
24.477107 0.6290 0.6290 0.6270 0.6250 0.6230
24.565000 0.6200 0.6180 0.6110 0.6090 0.6050
24.653107 0.6030 0.6020 0.6000 0.5870 0.5820
24.741000 0.5800 0.5690 0.5620 0.5570 0.5530
24.829107 0.5460 0.5410 0.5340 0.5320 0.5280
24.917000 0.5260 0.5250 0.5190 0.5160 0.5100
25.005107 0.5050 0.5000 0.4920 0.4870 0.4820
25.093000 0.4760 0.4730 0.4690 0.4650 0.4640
25.181107 0.4620 0.4600 0.4600 0.4580 0.4580
25.269000 0.4580 0.4600 0.4600 0.4620 0.4650
25.357107 0.4730 0.4780 0.4830 0.4890 0.4980
25.445000 0.5030 0.5100 0.5160 0.5250 0.5370
25.533107 0.5480 0.5550 0.5660 0.5780 0.5870
25.621000 0.5930 0.6000 0.6020 0.6050 0.6200
25.709107 0.6290 0.6370 0.6430 0.6500 0.6540
25.798000 0.6590 0.6630 0.6700 0.6750 0.6810
25.886107 0.6860 0.6890 0.6950 0.7000 0.7020
25.974000 0.7040 0.7060 0.7110 0.7160 0.7220
26.062107 0.7270 0.7290 0.7320 0.7320 0.7340
26.150000 0.7360 0.7400 0.7490 0.7500 0.7520
26.238107 0.7540 0.7560 0.7580 0.7590 0.7610
26.326000 0.7630 0.7650 0.7700 0.7720 0.7740
26.414107 0.7750 0.7790 0.7810 0.7830 0.7840
26.502000 0.7880 0.7900 0.7920 0.7930 0.7950
26.590107 0.7970 0.7990 0.8010 0.8020 0.8020
26.678000 0.8060 0.8080 0.8080 0.8100 0.8100
26.766107 0.8110 0.8110 0.8130 0.8130 0.8150
26.854000 0.8150 0.8170 0.8170 0.8180 0.8200
26.942107 0.8200 0.8200 0.8200 0.8220 0.8240
27.030000 0.8240 0.8260 0.8260 0.8260 0.8270
27.118107 0.8270 0.8270 0.8290 0.8290 0.8290
27.206000 0.8310 0.8310 0.8310 0.8310 0.8310
27.294107 0.8310 0.8310 0.8310 0.8310 0.8310
27.382000 0.8310 0.8310 0.8310 0.8310 0.8290
27.470107 0.8290 0.8290 0.8290 0.8270 0.8260
27.558000 0.8240 0.8220 0.8200 0.8180 0.8150
27.646107 0.8150 0.8130 0.8110 0.8080 0.8040
27.734000 0.8020 0.8020 0.8010 0.7990 0.7970
27.822107 0.7930 0.7880 0.7840 0.7810 0.7790
27.910000 0.7770 0.7750 0.7750 0.7740 0.7700
27.998107 0.7650 0.7590 0.7520 0.7500 0.7450
28.087000 0.7400 0.7360 0.7310 0.7270 0.7220
28.175107 0.7180 0.7150 0.7070 0.7020 0.6980
28.263000 0.6910 0.6860 0.6810 0.6720 0.6660
28.351107 0.6610 0.6590 0.6520 0.6480 0.6410
28.439000 0.6360 0.6320 0.6290 0.6210 0.6070
28.527107 0.6020 0.6000 0.5960 0.5890 0.5780
28.615000 0.5710 0.5680 0.5620 0.5590 0.5570
28.703107 0.5550 0.5530 0.5510 0.5500 0.5480
28.791000 0.5460 0.5460 0.5440 0.5430 0.5430
28.879107 0.5410 0.5410 0.5410 0.5410 0.5430
28.967000 0.5430 0.5440 0.5460 0.5500 0.5510
29.055107 0.5550 0.5590 0.5640 0.5690 0.5730
29.143000 0.5780 0.5860 0.5980 0.6020 0.6030
29.231107 0.6120 0.6290 0.6370 0.6480 0.6500
29.319000 0.6520 0.6590 0.6730 0.6790 0.6860
29.407107 0.6890 0.7000 0.7000 0.7060 0.7150
29.495000 0.7250 0.7340 0.7560 0.7580 0.7630
29.583107 0.7670 0.7740 0.7770 0.7830 0.7900
29.671000 0.7970 0.8010 0.8100 0.8150 0.8180
29.759107 0.8200 0.8220 0.8270 0.8330 0.8360
29.847000 0.8420 0.8470 0.8510 0.8530 0.8560
29.935107 0.8580 0.8600 0.8630 0.8650 0.8700
30.023000 0.8760 0.8850 0.8880 0.8880 0.8900
30.111107 0.8940 0.8960 0.8990 0.8990 0.9010
30.200000 0.9030 0.9100 0.9130 0.9150 0.9210
30.288107 0.9240 0.9260 0.9280 0.9280 0.9300
30.376000 0.9300 0.9300 0.9300 0.9310 0.9310
30.464107 0.9310 0.9330 0.9350 0.9370 0.9390
30.552000 0.9390 0.9390 0.9400 0.9400 0.9400
30.640107 0.9400 0.9400 0.9400 0.9400 0.9420
30.728000 0.9440 0.9440 0.9460 0.9480 0.9480
30.816107 0.9490 0.9490 0.9490 0.9490 0.9490
30.904000 0.9490 0.9480 0.9480 0.9480 0.9460
30.992107 0.9480 0.9480 0.9460 0.9460 0.9460
31.080000 0.9460 0.9460 0.9460 0.9460 0.9480
31.168107 0.9480 0.9490 0.9490 0.9490 0.9490
31.256000 0.9490 0.9490 0.9490 0.9490 0.9480
31.344107 0.9490 0.9490 0.9490 0.9510 0.9510
31.432000 0.9490 0.9490 0.9490 0.9490 0.9510
31.520107 0.9510 0.9490 0.9480 0.9480 0.9480
31.608000 0.9480 0.9490 0.9490 0.9490 0.9490
31.696107 0.9480 0.9480 0.9460 0.9440 0.9420
31.784000 0.9420 0.9400 0.9400 0.9400 0.9400
31.872107 0.9390 0.9390 0.9370 0.9370 0.9390
31.960000 0.9390 0.9390 0.9390 0.9390 0.9390
32.048107 0.9370 0.9370 0.9370 0.9390 0.9390
32.136000 0.9390 0.9370 0.9350 0.9310 0.9280
32.224107 0.9280 0.9280 0.9280 0.9300 0.9300
32.313000 0.9300 0.9300 0.9300 0.9280 0.9280
32.401107 0.9280 0.9280 0.9260 0.9260 0.9260
32.489000 0.9260 0.9260 0.9260 0.9260 0.9260
32.577107 0.9260 0.9280 0.9280 0.9280 0.9280
32.665000 0.9300 0.9330 0.9350 0.9370 0.9390
32.753107 0.9400 0.9440 0.9480 0.9490 0.9510
32.841000 0.9510 0.9560 0.9600 0.9620 0.9620
32.929107 0.9620 0.9620 0.9580 0.9530 0.9480
33.017000 0.9400 0.9350 0.9310 0.9280 0.9220
33.105107 0.9210 0.9190 0.9130 0.9050 0.9030
33.193000 0.9010 0.9010 0.9010 0.9010 0.8990
33.281107 0.8970 0.8940 0.8920 0.8920 0.8960
33.369000 0.9010 0.9030 0.9050 0.9060 0.9100
33.457107 0.9150 0.9190 0.9390 0.9390 0.9370
33.545000 0.9330 0.9330 0.9330 0.9330 0.9310
33.633107 0.9300 0.9300 0.9300 0.9300 0.9300
33.721000 0.9300 0.9280 0.9280 0.9300 0.9300
33.809107 0.9300 0.9300 0.9280 0.9280 0.9280
33.897000 0.9280 0.9280 0.9280 0.9280 0.9260
33.985107 0.9260 0.9260 0.9260 0.9260 0.9260
34.073000 0.9260 0.9260 0.9240 0.9240 0.9240
34.161107 0.9240 0.9240 0.9220 0.9210 0.9210
34.249000 0.9210 0.9210 0.9220 0.9220 0.9220
34.337107 0.9220 0.9220 0.9220 0.9220 0.9220
34.426000 0.9210 0.9190 0.9170 0.9150 0.9130
34.514107 0.9100 0.9060 0.9060 0.9030 0.9010
34.602000 0.8920 0.8880 0.8760 0.8720 0.8700
34.690107 0.8690 0.8690 0.8670 0.8670 0.8650
34.778000 0.8650 0.8650 0.8630 0.8630 0.8620
34.866107 0.8620 0.8620 0.8620 0.8630 0.8630
34.954000 0.8630 0.8630 0.8630 0.8630 0.8620
35.042107 0.8600 0.8600 0.8600 0.8580 0.8580
35.130000 0.8560 0.8560 0.8560 0.8560 0.8560
35.218107 0.8540 0.8540 0.8540 0.8540 0.8540
35.306000 0.8530 0.8510 0.8510 0.8490 0.8470
35.394107 0.8470 0.8470 0.8450 0.8440 0.8440
35.482000 0.8440 0.8420 0.8400 0.8380 0.8360
35.570107 0.8350 0.8350 0.8330 0.8310 0.8290
35.658000 0.8260 0.8260 0.8260 0.8240 0.8220
35.746107 0.8200 0.8180 0.8150 0.8110 0.8110
35.834000 0.8110 0.8100 0.8100 0.8040 0.8040
35.922107 0.8020 0.8020 0.8010 0.7990 0.7990
36.010000 0.7970 0.7950 0.7920 0.7840 0.7830
36.098107 0.7830 0.7810 0.7810 0.7810 0.7790
36.186000 0.7790 0.7790 0.7790 0.7770 0.7770
36.274107 0.7750 0.7750 0.7750 0.7750 0.7740
36.362000 0.7740 0.7740 0.7720 0.7650 0.7590
36.450107 0.7580 0.7580 0.7590 0.7590 0.7580
36.539000 0.7560 0.7540 0.7540 0.7520 0.7520
36.627107 0.7500 0.7500 0.7500 0.7490 0.7490
36.715000 0.7430 0.7430 0.7410 0.7400 0.7400
36.803107 0.7380 0.7380 0.7360 0.7360 0.7340
36.891000 0.7340 0.7340 0.7320 0.7290 0.7240
36.979107 0.7240 0.7220 0.7180 0.7150 0.7110
37.067000 0.7110 0.7090 0.7090 0.7090 0.7070
37.155107 0.7060 0.7060 0.7060 0.7040 0.7040
37.243000 0.7040 0.7020 0.7020 0.7020 0.7020
37.331107 0.7020 0.7020 0.7020 0.7020 0.7000
37.419000 0.7000 0.7000 0.7000 0.7000 0.7000
37.507107 0.7000 0.6980 0.6980 0.6980 0.6970
37.595000 0.6950 0.6910 0.6910 0.6890 0.6890
37.683107 0.6880 0.6880 0.6880 0.6880 0.6880
37.771000 0.6880 0.6860 0.6840 0.6810 0.6790
37.859107 0.6730 0.6700 0.6660 0.6660 0.6640
37.947000 0.6640 0.6630 0.6590 0.6590
##END=
