##TITLE=3-CHLORO-1-BUTENE
##JCAMP-DX=4.24
##DATA TYPE=INFRARED SPECTRUM
##CLASS=COBLENTZ
##ORIGIN=W.T. BOLLETER
##OWNER=COBLENTZ SOCIETY
Collection (C) 2018 copyright by the U.S. Secretary of Commerce
on behalf of the United States of America. All rights reserved.
##DATE=Not specified, most likely prior to 1970
##CAS REGISTRY NO=563-52-0
##MOLFORM=C4 H7 Cl
##SOURCE REFERENCE=COBLENTZ NO. 4506
##$NIST SOURCE=COBLENTZ
##$NIST IMAGE=cob4506
##SPECTROMETER/DATA SYSTEM=Not specified, most likely a prism, grating, or hybrid spectrometer.
##PATH LENGTH=0.0025 CM
##SAMPLING PROCEDURE=TRANSMISSION
##RESOLUTION=4
##DATA PROCESSING=DIGITIZED BY NIST FROM HARD COPY
##XUNITS=MICROMETERS
##YUNITS=TRANSMITTANCE
##XFACTOR=1.000000
##YFACTOR=1
##DELTAX=000.017572
##FIRSTX=14.524
##LASTX=38.0356
##FIRSTY=0.071
##MAXX=38.0356
##MINX=14.524
##MAXY=0.996
##MINY=0.071
##NPOINTS=1339
##XYDATA=(X++(Y..Y))
14.524000 0.0710 0.0830 0.0870 0.0940 0.0970
14.611925 0.1040 0.1150 0.1260 0.1450 0.1650
14.700000 0.1760 0.1900 0.2040 0.2220 0.2380
14.787925 0.2520 0.2610 0.2770 0.2950 0.3090
14.875000 0.3230 0.3360 0.3460 0.3570 0.3680
14.962925 0.3770 0.3860 0.3950 0.4030 0.4090
15.051000 0.4140 0.4180 0.4230 0.4270 0.4280
15.138925 0.4300 0.4300 0.4320 0.4320 0.4300
15.227000 0.4270 0.4270 0.4250 0.4230 0.4230
15.314925 0.4250 0.4270 0.4270 0.4250 0.4250
15.403000 0.4230 0.4210 0.4190 0.4180 0.4090
15.490925 0.4020 0.3930 0.3840 0.3730 0.3610
15.578000 0.3500 0.3380 0.3230 0.3090 0.2950
15.665925 0.2770 0.2630 0.2540 0.2450 0.2310
15.754000 0.2090 0.1990 0.1850 0.1740 0.1580
15.841925 0.1470 0.1440 0.1260 0.1220 0.1150
15.930000 0.1120 0.1080 0.1040 0.0990 0.0970
16.017925 0.0960 0.0940 0.0940 0.0920 0.0920
16.105000 0.0900 0.0900 0.0900 0.0900 0.0900
16.192925 0.0920 0.0920 0.0940 0.0960 0.0970
16.281000 0.0990 0.1010 0.1030 0.1040 0.1060
16.368925 0.1080 0.1100 0.1130 0.1170 0.1220
16.457000 0.1260 0.1290 0.1350 0.1380 0.1440
16.544925 0.1560 0.1610 0.1610 0.1690 0.1700
16.633000 0.1720 0.1760 0.1770 0.1770 0.1790
16.720925 0.1790 0.1770 0.1740 0.1700 0.1690
16.808000 0.1670 0.1630 0.1610 0.1600 0.1560
16.895925 0.1540 0.1530 0.1510 0.1490 0.1490
16.984000 0.1490 0.1510 0.1540 0.1600 0.1650
17.071925 0.1700 0.1760 0.1880 0.1990 0.2130
17.160000 0.2250 0.2400 0.2520 0.2680 0.2880
17.247925 0.3060 0.3270 0.3460 0.3680 0.3860
17.335000 0.4020 0.4160 0.4340 0.4510 0.4640
17.422925 0.4780 0.4960 0.5210 0.5350 0.5510
17.511000 0.5710 0.5830 0.5960 0.6030 0.6120
17.598925 0.6240 0.6400 0.6490 0.6540 0.6670
17.687000 0.6770 0.6850 0.6970 0.7020 0.7130
17.774925 0.7200 0.7310 0.7430 0.7490 0.7560
17.863000 0.7590 0.7650 0.7720 0.7790 0.7840
17.950925 0.7950 0.7970 0.8000 0.8070 0.8140
18.038000 0.8220 0.8270 0.8290 0.8340 0.8360
18.125925 0.8380 0.8390 0.8410 0.8450 0.8460
18.214000 0.8500 0.8520 0.8540 0.8550 0.8590
18.301925 0.8620 0.8640 0.8660 0.8680 0.8680
18.390000 0.8680 0.8680 0.8700 0.8700 0.8710
18.477925 0.8710 0.8730 0.8730 0.8710 0.8710
18.565000 0.8710 0.8700 0.8700 0.8680 0.8680
18.652925 0.8660 0.8660 0.8640 0.8620 0.8610
18.741000 0.8570 0.8570 0.8540 0.8520 0.8500
18.828925 0.8480 0.8480 0.8430 0.8390 0.8390
18.917000 0.8380 0.8340 0.8320 0.8290 0.8250
19.004925 0.8200 0.8160 0.8090 0.8060 0.8040
19.093000 0.7980 0.7900 0.7880 0.7840 0.7770
19.180925 0.7750 0.7700 0.7610 0.7540 0.7490
19.268000 0.7450 0.7340 0.7250 0.7200 0.7040
19.355925 0.6950 0.6790 0.6650 0.6530 0.6470
19.444000 0.6440 0.6330 0.6190 0.6040 0.5870
19.531925 0.5720 0.5580 0.5490 0.5440 0.5280
19.620000 0.5140 0.5010 0.5000 0.4960 0.4890
19.707925 0.4820 0.4730 0.4670 0.4590 0.4510
19.796000 0.4480 0.4440 0.4430 0.4410 0.4390
19.883925 0.4370 0.4370 0.4390 0.4410 0.4430
19.971000 0.4460 0.4550 0.4620 0.4730 0.4820
20.058925 0.4850 0.4920 0.4980 0.5170 0.5240
20.147000 0.5370 0.5480 0.5510 0.5580 0.5710
20.234925 0.5780 0.5940 0.5990 0.6030 0.6190
20.323000 0.6280 0.6380 0.6470 0.6510 0.6580
20.410925 0.6630 0.6690 0.6760 0.6790 0.6830
20.498000 0.6880 0.6930 0.6990 0.7010 0.7020
20.585925 0.7080 0.7090 0.7130 0.7150 0.7200
20.674000 0.7220 0.7240 0.7240 0.7250 0.7250
20.761925 0.7250 0.7250 0.7250 0.7250 0.7240
20.850000 0.7240 0.7220 0.7200 0.7180 0.7150
20.937925 0.7130 0.7090 0.7040 0.7010 0.6970
21.026000 0.6920 0.6810 0.6770 0.6700 0.6630
21.113925 0.6560 0.6510 0.6490 0.6420 0.6380
21.201000 0.6220 0.6170 0.6030 0.5990 0.5870
21.288925 0.5740 0.5650 0.5530 0.5440 0.5350
21.377000 0.5240 0.5160 0.5030 0.4980 0.4920
21.464925 0.4780 0.4660 0.4500 0.4340 0.4160
21.553000 0.4000 0.3910 0.3700 0.3590 0.3460
21.640925 0.3340 0.3220 0.3040 0.2970 0.2790
21.728000 0.2680 0.2590 0.2490 0.2360 0.2310
21.815925 0.2270 0.2220 0.2150 0.2080 0.2040
21.904000 0.2020 0.1990 0.1970 0.1950 0.1930
21.991925 0.1920 0.1930 0.1950 0.1970 0.2010
22.080000 0.2090 0.2110 0.2150 0.2240 0.2340
22.167925 0.2470 0.2580 0.2660 0.2790 0.2930
22.256000 0.3020 0.3200 0.3340 0.3520 0.3700
22.343925 0.3800 0.3950 0.4030 0.4230 0.4430
22.431000 0.4590 0.4730 0.4870 0.5000 0.5240
22.518925 0.5390 0.5530 0.5560 0.5740 0.5850
22.607000 0.5990 0.6040 0.6260 0.6450 0.6580
22.694925 0.6670 0.6760 0.6850 0.6970 0.6990
22.783000 0.7040 0.7180 0.7290 0.7360 0.7470
22.870925 0.7520 0.7630 0.7680 0.7750 0.7790
22.958000 0.7820 0.7880 0.7930 0.8000 0.8070
23.045925 0.8160 0.8220 0.8250 0.8290 0.8320
23.134000 0.8380 0.8430 0.8480 0.8500 0.8540
23.221925 0.8570 0.8610 0.8620 0.8660 0.8710
23.310000 0.8800 0.8840 0.8860 0.8870 0.8890
23.397925 0.8930 0.8960 0.8960 0.8980 0.9000
23.486000 0.9000 0.9020 0.9030 0.9050 0.9050
23.573925 0.9070 0.9090 0.9090 0.9110 0.9120
23.661000 0.9140 0.9160 0.9160 0.9180 0.9180
23.748925 0.9190 0.9210 0.9230 0.9250 0.9270
23.837000 0.9270 0.9280 0.9300 0.9300 0.9320
23.924925 0.9320 0.9340 0.9340 0.9350 0.9350
24.013000 0.9370 0.9370 0.9390 0.9390 0.9410
24.100925 0.9410 0.9430 0.9430 0.9430 0.9440
24.188000 0.9460 0.9460 0.9480 0.9480 0.9500
24.275925 0.9500 0.9510 0.9510 0.9530 0.9530
24.364000 0.9530 0.9550 0.9550 0.9570 0.9570
24.451925 0.9570 0.9570 0.9590 0.9590 0.9590
24.540000 0.9590 0.9590 0.9590 0.9590 0.9590
24.627925 0.9590 0.9590 0.9590 0.9590 0.9590
24.716000 0.9600 0.9600 0.9600 0.9600 0.9620
24.803925 0.9620 0.9640 0.9640 0.9670 0.9710
24.891000 0.9730 0.9780 0.9820 0.9830 0.9830
24.978925 0.9850 0.9850 0.9870 0.9890 0.9910
25.067000 0.9920 0.9920 0.9920 0.9920 0.9940
25.154925 0.9940 0.9940 0.9940 0.9920 0.9920
25.243000 0.9920 0.9920 0.9920 0.9920 0.9920
25.330925 0.9920 0.9920 0.9920 0.9920 0.9940
25.419000 0.9940 0.9940 0.9960 0.9960 0.9960
25.506925 0.9960 0.9960 0.9940 0.9940 0.9920
25.594000 0.9920 0.9920 0.9920 0.9910 0.9910
25.681925 0.9910 0.9890 0.9890 0.9890 0.9890
25.770000 0.9890 0.9890 0.9890 0.9910 0.9910
25.857925 0.9910 0.9890 0.9870 0.9870 0.9870
25.946000 0.9850 0.9850 0.9850 0.9850 0.9850
26.033925 0.9850 0.9850 0.9850 0.9850 0.9850
26.121000 0.9850 0.9850 0.9870 0.9870 0.9890
26.208925 0.9890 0.9890 0.9870 0.9850 0.9850
26.297000 0.9850 0.9830 0.9830 0.9830 0.9830
26.384925 0.9830 0.9830 0.9830 0.9830 0.9830
26.473000 0.9830 0.9830 0.9850 0.9850 0.9850
26.560925 0.9850 0.9830 0.9820 0.9820 0.9800
26.649000 0.9800 0.9800 0.9800 0.9800 0.9800
26.736925 0.9780 0.9750 0.9690 0.9670 0.9670
26.824000 0.9670 0.9670 0.9670 0.9660 0.9660
26.911925 0.9640 0.9620 0.9620 0.9620 0.9600
27.000000 0.9600 0.9600 0.9590 0.9590 0.9590
27.087925 0.9590 0.9590 0.9590 0.9590 0.9590
27.176000 0.9590 0.9600 0.9600 0.9600 0.9600
27.263925 0.9600 0.9600 0.9620 0.9620 0.9640
27.351000 0.9640 0.9660 0.9660 0.9660 0.9660
27.438925 0.9660 0.9660 0.9660 0.9660 0.9670
27.527000 0.9670 0.9670 0.9670 0.9690 0.9690
27.614925 0.9690 0.9690 0.9690 0.9690 0.9690
27.703000 0.9690 0.9690 0.9690 0.9670 0.9670
27.790925 0.9660 0.9640 0.9640 0.9620 0.9600
27.879000 0.9600 0.9600 0.9590 0.9570 0.9530
27.966925 0.9530 0.9510 0.9480 0.9460 0.9410
28.054000 0.9370 0.9340 0.9300 0.9280 0.9250
28.141925 0.9210 0.9140 0.9090 0.9000 0.8960
28.230000 0.8950 0.8910 0.8860 0.8840 0.8790
28.317925 0.8710 0.8610 0.8540 0.8500 0.8480
28.406000 0.8410 0.8320 0.8250 0.8200 0.8090
28.493925 0.8060 0.7970 0.7810 0.7660 0.7580
28.581000 0.7500 0.7450 0.7250 0.7110 0.7010
28.668925 0.6990 0.6860 0.6740 0.6600 0.6530
28.757000 0.6470 0.6380 0.6260 0.6170 0.6100
28.844925 0.5990 0.5870 0.5780 0.5710 0.5620
28.933000 0.5580 0.5530 0.5490 0.5480 0.5460
29.020925 0.5440 0.5420 0.5420 0.5420 0.5420
29.109000 0.5440 0.5440 0.5460 0.5480 0.5480
29.196925 0.5510 0.5560 0.5580 0.5620 0.5690
29.284000 0.5760 0.5800 0.5870 0.5960 0.5990
29.371925 0.6040 0.6150 0.6190 0.6310 0.6380
29.460000 0.6450 0.6540 0.6610 0.6720 0.6790
29.547925 0.6830 0.6860 0.6900 0.6950 0.6990
29.636000 0.7020 0.7090 0.7180 0.7240 0.7270
29.723925 0.7310 0.7340 0.7380 0.7430 0.7490
29.812000 0.7560 0.7580 0.7590 0.7610 0.7610
29.899925 0.7630 0.7650 0.7650 0.7660 0.7660
29.987000 0.7660 0.7650 0.7650 0.7630 0.7610
30.074925 0.7590 0.7590 0.7580 0.7560 0.7520
30.163000 0.7500 0.7490 0.7470 0.7450 0.7430
30.250925 0.7410 0.7360 0.7330 0.7270 0.7220
30.339000 0.7180 0.7090 0.7090 0.7040 0.7010
30.426925 0.6970 0.6860 0.6810 0.6720 0.6650
30.514000 0.6560 0.6490 0.6470 0.6400 0.6370
30.601925 0.6330 0.6240 0.6200 0.6170 0.6130
30.690000 0.6040 0.6010 0.5970 0.5960 0.5870
30.777925 0.5800 0.5740 0.5690 0.5650 0.5650
30.866000 0.5640 0.5620 0.5580 0.5550 0.5550
30.953925 0.5530 0.5530 0.5510 0.5510 0.5490
31.042000 0.5420 0.5400 0.5400 0.5390 0.5390
31.129925 0.5370 0.5350 0.5350 0.5350 0.5350
31.217000 0.5350 0.5350 0.5350 0.5350 0.5370
31.304925 0.5370 0.5390 0.5400 0.5420 0.5420
31.393000 0.5440 0.5440 0.5420 0.5420 0.5420
31.480925 0.5400 0.5400 0.5400 0.5420 0.5440
31.569000 0.5460 0.5490 0.5490 0.5490 0.5510
31.656925 0.5510 0.5510 0.5510 0.5510 0.5510
31.744000 0.5510 0.5490 0.5480 0.5480 0.5460
31.831925 0.5440 0.5420 0.5400 0.5390 0.5370
31.920000 0.5330 0.5320 0.5300 0.5260 0.5240
32.007925 0.5210 0.5170 0.5100 0.5080 0.5070
32.096000 0.5050 0.5010 0.5010 0.5000 0.4980
32.183925 0.4960 0.4940 0.4920 0.4890 0.4870
32.272000 0.4850 0.4820 0.4800 0.4780 0.4780
32.359925 0.4760 0.4760 0.4750 0.4750 0.4730
32.447000 0.4730 0.4730 0.4730 0.4730 0.4730
32.534925 0.4730 0.4730 0.4730 0.4750 0.4750
32.623000 0.4780 0.4780 0.4820 0.4870 0.4940
32.710925 0.4980 0.5030 0.5070 0.5120 0.5160
32.799000 0.5210 0.5240 0.5280 0.5320 0.5370
32.886925 0.5420 0.5480 0.5530 0.5600 0.5650
32.974000 0.5690 0.5740 0.5780 0.5850 0.5900
33.061925 0.5940 0.5990 0.6030 0.6030 0.6060
33.150000 0.6080 0.6150 0.6200 0.6220 0.6220
33.237925 0.6240 0.6260 0.6310 0.6350 0.6370
33.326000 0.6370 0.6380 0.6400 0.6400 0.6420
33.413925 0.6420 0.6440 0.6440 0.6450 0.6470
33.502000 0.6490 0.6510 0.6530 0.6540 0.6540
33.589925 0.6560 0.6560 0.6580 0.6580 0.6560
33.677000 0.6560 0.6560 0.6540 0.6530 0.6530
33.764925 0.6510 0.6510 0.6490 0.6490 0.6470
33.853000 0.6470 0.6440 0.6420 0.6400 0.6370
33.940925 0.6310 0.6280 0.6260 0.6260 0.6240
34.029000 0.6220 0.6190 0.6130 0.6100 0.6080
34.116925 0.6030 0.6010 0.6010 0.5990 0.5960
34.204000 0.5900 0.5850 0.5830 0.5810 0.5780
34.291925 0.5720 0.5670 0.5620 0.5600 0.5580
34.380000 0.5560 0.5550 0.5530 0.5490 0.5490
34.467925 0.5460 0.5440 0.5400 0.5370 0.5330
34.556000 0.5280 0.5240 0.5190 0.5120 0.5100
34.643925 0.5080 0.5080 0.5050 0.5010 0.5010
34.732000 0.5000 0.4940 0.4850 0.4800 0.4780
34.819925 0.4730 0.4690 0.4670 0.4660 0.4620
34.907000 0.4600 0.4590 0.4570 0.4550 0.4550
34.994925 0.4510 0.4500 0.4460 0.4460 0.4430
35.083000 0.4390 0.4370 0.4350 0.4350 0.4350
35.170925 0.4350 0.4350 0.4350 0.4350 0.4350
35.259000 0.4350 0.4350 0.4350 0.4350 0.4350
35.346925 0.4350 0.4350 0.4350 0.4350 0.4370
35.435000 0.4390 0.4390 0.4390 0.4390 0.4410
35.522925 0.4410 0.4410 0.4430 0.4430 0.4430
35.610000 0.4430 0.4440 0.4440 0.4440 0.4460
35.697925 0.4460 0.4460 0.4460 0.4480 0.4480
35.786000 0.4480 0.4500 0.4500 0.4510 0.4510
35.873925 0.4550 0.4550 0.4570 0.4590 0.4590
35.962000 0.4600 0.4620 0.4640 0.4660 0.4670
36.049925 0.4690 0.4710 0.4730 0.4730 0.4730
36.137000 0.4730 0.4750 0.4750 0.4750 0.4760
36.224925 0.4760 0.4800 0.4820 0.4820 0.4830
36.313000 0.4850 0.4890 0.4910 0.4920 0.4940
36.400925 0.4960 0.4960 0.4980 0.5000 0.5010
36.489000 0.5050 0.5070 0.5100 0.5140 0.5170
36.576925 0.5190 0.5230 0.5240 0.5240 0.5260
36.665000 0.5280 0.5300 0.5320 0.5330 0.5330
36.752925 0.5350 0.5390 0.5400 0.5400 0.5400
36.840000 0.5440 0.5460 0.5460 0.5480 0.5480
36.927925 0.5490 0.5490 0.5490 0.5510 0.5530
37.016000 0.5550 0.5560 0.5580 0.5580 0.5580
37.103925 0.5600 0.5600 0.5620 0.5620 0.5640
37.192000 0.5650 0.5670 0.5670 0.5690 0.5690
37.279925 0.5710 0.5710 0.5720 0.5720 0.5740
37.367000 0.5760 0.5760 0.5760 0.5760 0.5760
37.454925 0.5780 0.5780 0.5780 0.5780 0.5760
37.543000 0.5760 0.5760 0.5780 0.5780 0.5780
37.630925 0.5780 0.5800 0.5800 0.5800 0.5800
37.719000 0.5800 0.5800 0.5800 0.5800 0.5800
37.806925 0.5780 0.5780 0.5780 0.5780 0.5780
37.895000 0.5800 0.5800 0.5810 0.5830 0.5830
37.982925 0.5810 0.5810 0.5810 0.5810
##END=
