##TITLE=1,1,2-TRICHLOROPROPANE
##JCAMP-DX=4.24
##DATA TYPE=INFRARED SPECTRUM
##CLASS=COBLENTZ
##ORIGIN=W.T. BOLLETER
##OWNER=COBLENTZ SOCIETY
Collection (C) 2018 copyright by the U.S. Secretary of Commerce
on behalf of the United States of America. All rights reserved.
##DATE=Not specified, most likely prior to 1970
##CAS REGISTRY NO=598-77-6
##MOLFORM=C3 H5 Cl3
##SOURCE REFERENCE=COBLENTZ NO. 4482
##$NIST SOURCE=COBLENTZ
##$NIST IMAGE=cob4482
##SPECTROMETER/DATA SYSTEM=Not specified, most likely a prism, grating, or hybrid spectrometer.
##PATH LENGTH=0.0025 CM
##SAMPLING PROCEDURE=TRANSMISSION
##RESOLUTION=4
##DATA PROCESSING=DIGITIZED BY NIST FROM HARD COPY
##XUNITS=MICROMETERS
##YUNITS=TRANSMITTANCE
##XFACTOR=1.000000
##YFACTOR=1
##DELTAX=000.017557
##FIRSTX=14.509
##LASTX=37.983
##FIRSTY=0.003
##MAXX=37.983
##MINX=14.509
##MAXY=0.912
##MINY=0.003
##NPOINTS=1338
##XYDATA=(X++(Y..Y))
14.509000 0.0030 0.0030 0.0030 0.0030 0.0030
14.596849 0.0030 0.0030 0.0030 0.0030 0.0030
14.685000 0.0030 0.0030 0.0030 0.0030 0.0030
14.772849 0.0030 0.0030 0.0030 0.0030 0.0030
14.860000 0.0030 0.0030 0.0030 0.0050 0.0050
14.947849 0.0050 0.0070 0.0070 0.0070 0.0100
15.036000 0.0100 0.0120 0.0140 0.0190 0.0260
15.123849 0.0280 0.0310 0.0370 0.0470 0.0510
15.211000 0.0620 0.0810 0.0970 0.1010 0.1130
15.298849 0.1430 0.1660 0.1840 0.2020 0.2230
15.387000 0.2460 0.2640 0.2780 0.2930 0.3030
15.474849 0.3170 0.3330 0.3480 0.3600 0.3710
15.563000 0.3780 0.3940 0.3990 0.4080 0.4130
15.650849 0.4220 0.4290 0.4350 0.4400 0.4470
15.738000 0.4510 0.4540 0.4560 0.4580 0.4580
15.825849 0.4580 0.4560 0.4520 0.4470 0.4330
15.914000 0.4170 0.3990 0.3810 0.3510 0.3260
16.001849 0.3050 0.2610 0.2290 0.1930 0.1660
16.089000 0.1430 0.1080 0.0940 0.0780 0.0710
16.176849 0.0490 0.0370 0.0300 0.0280 0.0280
16.265000 0.0300 0.0300 0.0330 0.0390 0.0490
16.352849 0.0650 0.0950 0.1040 0.1290 0.1610
16.440000 0.1980 0.2220 0.2550 0.2980 0.3410
16.527849 0.3810 0.4100 0.4450 0.4720 0.4970
16.616000 0.5060 0.5290 0.5450 0.5500 0.5700
16.703849 0.5890 0.6020 0.6140 0.6260 0.6440
16.792000 0.6510 0.6640 0.6730 0.6830 0.6980
16.879849 0.7030 0.7140 0.7210 0.7260 0.7420
16.967000 0.7470 0.7540 0.7610 0.7670 0.7720
17.054849 0.7760 0.7790 0.7810 0.7830 0.7860
17.143000 0.7880 0.7880 0.7880 0.7900 0.7900
17.230849 0.7920 0.7930 0.7930 0.7950 0.7950
17.318000 0.7970 0.7970 0.7930 0.7930 0.7930
17.405849 0.7920 0.7900 0.7900 0.7900 0.7860
17.494000 0.7830 0.7790 0.7760 0.7740 0.7740
17.581849 0.7720 0.7700 0.7690 0.7650 0.7610
17.669000 0.7600 0.7530 0.7510 0.7470 0.7440
17.756849 0.7400 0.7370 0.7300 0.7220 0.7190
17.845000 0.7120 0.7080 0.7010 0.6960 0.6760
17.932849 0.6690 0.6580 0.6480 0.6320 0.6230
18.020000 0.5950 0.5750 0.5540 0.5430 0.5200
18.107849 0.4970 0.4770 0.4510 0.4220 0.3970
18.196000 0.3640 0.3350 0.3010 0.2750 0.2450
18.283849 0.2160 0.1930 0.1680 0.1470 0.1240
18.372000 0.0970 0.0790 0.0720 0.0620 0.0420
18.459849 0.0390 0.0370 0.0300 0.0240 0.0210
18.547000 0.0190 0.0170 0.0170 0.0150 0.0150
18.634849 0.0150 0.0150 0.0150 0.0150 0.0150
18.723000 0.0150 0.0150 0.0150 0.0150 0.0170
18.810849 0.0210 0.0280 0.0310 0.0350 0.0400
18.898000 0.0490 0.0580 0.0780 0.0920 0.1150
18.985849 0.1950 0.2130 0.2250 0.2410 0.2610
19.074000 0.2910 0.3320 0.3670 0.3940 0.4350
19.161849 0.4670 0.4950 0.5200 0.5450 0.5610
19.249000 0.5960 0.6140 0.6390 0.6530 0.6690
19.336849 0.6980 0.7100 0.7210 0.7350 0.7490
19.425000 0.7610 0.7650 0.7720 0.7760 0.7860
19.512849 0.7950 0.8020 0.8040 0.8090 0.8150
19.601000 0.8180 0.8240 0.8290 0.8310 0.8340
19.688849 0.8400 0.8430 0.8490 0.8490 0.8500
19.776000 0.8500 0.8520 0.8540 0.8570 0.8590
19.863849 0.8610 0.8630 0.8650 0.8680 0.8720
19.952000 0.8720 0.8730 0.8770 0.8790 0.8800
20.039849 0.8800 0.8820 0.8840 0.8840 0.8860
20.127000 0.8880 0.8880 0.8890 0.8910 0.8930
20.214849 0.8930 0.8980 0.9000 0.9000 0.9020
20.303000 0.9020 0.9040 0.9050 0.9050 0.9050
20.390849 0.9050 0.9050 0.9050 0.9070 0.9070
20.478000 0.9090 0.9110 0.9110 0.9120 0.9120
20.565849 0.9120 0.9120 0.9120 0.9120 0.9120
20.654000 0.9120 0.9120 0.9110 0.9110 0.9110
20.741849 0.9110 0.9090 0.9090 0.9070 0.9070
20.830000 0.9070 0.9070 0.9050 0.9040 0.9020
20.917849 0.9000 0.9000 0.9000 0.9000 0.9000
21.005000 0.8980 0.8980 0.8960 0.8950 0.8930
21.092849 0.8930 0.8910 0.8910 0.8910 0.8910
21.181000 0.8910 0.8890 0.8890 0.8890 0.8890
21.268849 0.8890 0.8890 0.8890 0.8880 0.8880
21.356000 0.8840 0.8820 0.8820 0.8820 0.8820
21.443849 0.8820 0.8820 0.8820 0.8820 0.8800
21.532000 0.8770 0.8730 0.8720 0.8700 0.8680
21.619849 0.8660 0.8630 0.8590 0.8560 0.8520
21.707000 0.8500 0.8500 0.8490 0.8490 0.8450
21.794849 0.8380 0.8330 0.8290 0.8270 0.8240
21.883000 0.8200 0.8170 0.8110 0.8010 0.7970
21.970849 0.7950 0.7920 0.7880 0.7850 0.7810
22.059000 0.7790 0.7720 0.7690 0.7670 0.7650
22.146849 0.7630 0.7610 0.7600 0.7580 0.7580
22.234000 0.7540 0.7530 0.7530 0.7510 0.7510
22.321849 0.7510 0.7510 0.7490 0.7490 0.7490
22.410000 0.7490 0.7490 0.7490 0.7470 0.7470
22.497849 0.7460 0.7460 0.7440 0.7440 0.7420
22.585000 0.7400 0.7400 0.7380 0.7370 0.7350
22.672849 0.7310 0.7280 0.7240 0.7170 0.7140
22.761000 0.7100 0.7030 0.6990 0.6980 0.6900
22.848849 0.6820 0.6710 0.6640 0.6510 0.6460
22.936000 0.6370 0.6260 0.6190 0.6070 0.5930
23.023849 0.5730 0.5570 0.5520 0.5380 0.5200
23.112000 0.5090 0.4930 0.4700 0.4520 0.4400
23.199849 0.4170 0.3990 0.3830 0.3650 0.3480
23.287000 0.3210 0.3070 0.2890 0.2680 0.2480
23.374849 0.2300 0.2130 0.1950 0.1790 0.1650
23.463000 0.1560 0.1330 0.1130 0.1060 0.0970
23.550849 0.0900 0.0870 0.0850 0.0830 0.0810
23.639000 0.0810 0.0810 0.0810 0.0830 0.0850
23.726849 0.0870 0.0900 0.0940 0.0970 0.1010
23.814000 0.1080 0.1270 0.1470 0.1650 0.1860
23.901849 0.2020 0.2230 0.2460 0.2570 0.2800
23.990000 0.3070 0.3440 0.3510 0.3760 0.3960
24.077849 0.4100 0.4350 0.4520 0.4770 0.4950
24.165000 0.5070 0.5250 0.5450 0.5570 0.5710
24.252849 0.5840 0.5980 0.6140 0.6350 0.6500
24.341000 0.6550 0.6600 0.6730 0.6870 0.6990
24.428849 0.7100 0.7220 0.7280 0.7380 0.7490
24.516000 0.7540 0.7560 0.7600 0.7650 0.7720
24.603849 0.7810 0.7850 0.7900 0.8010 0.8020
24.692000 0.8020 0.8090 0.8110 0.8130 0.8180
24.779849 0.8250 0.8330 0.8400 0.8470 0.8500
24.868000 0.8610 0.8630 0.8680 0.8720 0.8730
24.955849 0.8750 0.8770 0.8790 0.8790 0.8790
25.043000 0.8790 0.8770 0.8770 0.8770 0.8790
25.130849 0.8820 0.8820 0.8800 0.8790 0.8790
25.219000 0.8770 0.8730 0.8680 0.8660 0.8660
25.306849 0.8660 0.8650 0.8630 0.8610 0.8570
25.394000 0.8520 0.8520 0.8500 0.8500 0.8490
25.481849 0.8470 0.8430 0.8340 0.8310 0.8270
25.570000 0.8240 0.8220 0.8220 0.8200 0.8170
25.657849 0.8150 0.8130 0.8130 0.8110 0.8090
25.745000 0.8080 0.8080 0.8080 0.8090 0.8110
25.832849 0.8130 0.8150 0.8170 0.8180 0.8180
25.921000 0.8200 0.8220 0.8240 0.8250 0.8270
26.008849 0.8330 0.8360 0.8400 0.8410 0.8430
26.097000 0.8490 0.8500 0.8500 0.8520 0.8520
26.184849 0.8540 0.8540 0.8540 0.8540 0.8540
26.272000 0.8520 0.8520 0.8520 0.8520 0.8520
26.359849 0.8500 0.8500 0.8450 0.8410 0.8400
26.448000 0.8400 0.8380 0.8360 0.8330 0.8270
26.535849 0.8220 0.8180 0.8130 0.8090 0.8040
26.623000 0.8020 0.8010 0.7990 0.7920 0.7850
26.710849 0.7740 0.7560 0.7510 0.7490 0.7380
26.799000 0.7240 0.7150 0.7010 0.6980 0.6800
26.886849 0.6570 0.6440 0.6230 0.6050 0.5910
26.974000 0.5730 0.5550 0.5380 0.5200 0.5000
27.061849 0.4830 0.4560 0.4380 0.4060 0.3880
27.150000 0.3650 0.3410 0.3210 0.3090 0.2980
27.237849 0.2710 0.2570 0.2480 0.2320 0.2200
27.326000 0.2070 0.2000 0.1970 0.1860 0.1820
27.413849 0.1810 0.1810 0.1810 0.1810 0.1820
27.501000 0.1880 0.1950 0.2000 0.2020 0.2130
27.588849 0.2270 0.2450 0.2550 0.2800 0.3010
27.677000 0.3160 0.3370 0.3530 0.3690 0.3850
27.764849 0.3990 0.4280 0.4520 0.4720 0.4920
27.852000 0.5070 0.5340 0.5520 0.5680 0.5890
27.939849 0.6090 0.6280 0.6480 0.6600 0.6740
28.028000 0.6940 0.6980 0.7140 0.7310 0.7470
28.115849 0.7510 0.7540 0.7630 0.7690 0.7760
28.203000 0.7810 0.7830 0.7900 0.7970 0.8010
28.290849 0.8020 0.8040 0.8040 0.8060 0.8080
28.379000 0.8090 0.8110 0.8130 0.8130 0.8130
28.466849 0.8110 0.8090 0.8080 0.8060 0.8040
28.554000 0.8020 0.8010 0.8010 0.7990 0.7930
28.641849 0.7880 0.7850 0.7810 0.7790 0.7760
28.730000 0.7700 0.7600 0.7530 0.7490 0.7370
28.817849 0.7310 0.7210 0.7140 0.7100 0.7030
28.906000 0.7010 0.6920 0.6820 0.6760 0.6740
28.993849 0.6670 0.6600 0.6510 0.6460 0.6350
29.081000 0.6280 0.6190 0.6160 0.6120 0.6070
29.168849 0.6030 0.6030 0.6020 0.6020 0.6020
29.257000 0.6030 0.6070 0.6140 0.6140 0.6180
29.344849 0.6190 0.6230 0.6260 0.6280 0.6350
29.432000 0.6390 0.6500 0.6510 0.6550 0.6660
29.519849 0.6740 0.6800 0.6850 0.6920 0.6990
29.608000 0.7010 0.7030 0.7080 0.7150 0.7220
29.695849 0.7300 0.7310 0.7330 0.7350 0.7400
29.783000 0.7420 0.7420 0.7440 0.7440 0.7440
29.870849 0.7460 0.7460 0.7460 0.7460 0.7440
29.959000 0.7440 0.7440 0.7420 0.7380 0.7350
30.046849 0.7310 0.7280 0.7210 0.7150 0.7140
30.135000 0.7140 0.7120 0.7080 0.7010 0.6990
30.222849 0.6980 0.6960 0.6850 0.6830 0.6740
30.310000 0.6620 0.6510 0.6480 0.6350 0.6250
30.397849 0.6180 0.6120 0.6020 0.5980 0.5870
30.486000 0.5790 0.5660 0.5430 0.5250 0.5160
30.573849 0.5070 0.5000 0.4880 0.4760 0.4580
30.661000 0.4470 0.4360 0.4220 0.4040 0.3960
30.748849 0.3780 0.3670 0.3570 0.3460 0.3370
30.837000 0.3190 0.3120 0.3010 0.2960 0.2840
30.924849 0.2710 0.2500 0.2410 0.2160 0.2110
31.012000 0.2060 0.2000 0.1900 0.1860 0.1820
31.099849 0.1750 0.1630 0.1590 0.1580 0.1560
31.188000 0.1540 0.1500 0.1490 0.1470 0.1470
31.275849 0.1450 0.1450 0.1430 0.1420 0.1400
31.364000 0.1380 0.1380 0.1360 0.1360 0.1340
31.451849 0.1330 0.1330 0.1310 0.1310 0.1310
31.539000 0.1310 0.1310 0.1330 0.1330 0.1340
31.626849 0.1360 0.1380 0.1380 0.1420 0.1430
31.715000 0.1430 0.1470 0.1490 0.1500 0.1520
31.802849 0.1590 0.1660 0.1680 0.1770 0.1840
31.890000 0.1950 0.1980 0.2020 0.2060 0.2130
31.977849 0.2230 0.2340 0.2460 0.2590 0.2750
32.066000 0.2930 0.2960 0.3010 0.3210 0.3280
32.153849 0.3460 0.3530 0.3620 0.3690 0.3780
32.241000 0.3830 0.3960 0.4100 0.4220 0.4380
32.328849 0.4490 0.4580 0.4680 0.4770 0.4840
32.417000 0.4970 0.5000 0.5130 0.5200 0.5250
32.504849 0.5310 0.5380 0.5450 0.5500 0.5590
32.593000 0.5660 0.5730 0.5840 0.5980 0.6020
32.680849 0.6110 0.6140 0.6250 0.6320 0.6370
32.768000 0.6460 0.6510 0.6550 0.6660 0.6710
32.855849 0.6740 0.6800 0.6890 0.6960 0.6990
32.944000 0.7010 0.7060 0.7080 0.7100 0.7120
33.031849 0.7140 0.7170 0.7210 0.7220 0.7240
33.119000 0.7260 0.7280 0.7280 0.7300 0.7300
33.206849 0.7300 0.7300 0.7310 0.7310 0.7330
33.295000 0.7350 0.7350 0.7380 0.7420 0.7470
33.382849 0.7510 0.7540 0.7560 0.7580 0.7580
33.470000 0.7600 0.7610 0.7630 0.7670 0.7700
33.557849 0.7720 0.7740 0.7760 0.7760 0.7760
33.646000 0.7770 0.7770 0.7810 0.7830 0.7830
33.733849 0.7830 0.7850 0.7850 0.7850 0.7850
33.822000 0.7850 0.7830 0.7830 0.7830 0.7830
33.909849 0.7830 0.7830 0.7830 0.7830 0.7830
33.997000 0.7850 0.7860 0.7860 0.7850 0.7850
34.084849 0.7830 0.7850 0.7860 0.7860 0.7830
34.173000 0.7830 0.7810 0.7810 0.7810 0.7790
34.260849 0.7790 0.7770 0.7770 0.7790 0.7810
34.348000 0.7810 0.7810 0.7810 0.7810 0.7790
34.435849 0.7770 0.7770 0.7770 0.7770 0.7770
34.524000 0.7760 0.7720 0.7690 0.7650 0.7630
34.611849 0.7610 0.7610 0.7580 0.7580 0.7580
34.699000 0.7560 0.7560 0.7530 0.7530 0.7530
34.786849 0.7510 0.7510 0.7490 0.7470 0.7420
34.875000 0.7400 0.7380 0.7350 0.7310 0.7260
34.962849 0.7240 0.7220 0.7190 0.7150 0.7140
35.050000 0.7120 0.7080 0.7060 0.7060 0.7030
35.137849 0.7010 0.6990 0.6990 0.6980 0.6980
35.226000 0.6980 0.6980 0.6960 0.6960 0.6960
35.313849 0.6960 0.6960 0.6940 0.6940 0.6920
35.402000 0.6900 0.6890 0.6870 0.6850 0.6830
35.489849 0.6800 0.6760 0.6730 0.6690 0.6660
35.577000 0.6620 0.6600 0.6580 0.6570 0.6530
35.664849 0.6500 0.6480 0.6410 0.6370 0.6340
35.753000 0.6320 0.6280 0.6260 0.6250 0.6230
35.840849 0.6210 0.6190 0.6190 0.6160 0.6120
35.928000 0.6090 0.6070 0.6070 0.6050 0.6050
36.015849 0.6030 0.6020 0.6020 0.6000 0.5980
36.104000 0.5930 0.5870 0.5800 0.5750 0.5700
36.191849 0.5660 0.5660 0.5630 0.5610 0.5590
36.279000 0.5570 0.5550 0.5520 0.5500 0.5500
36.366849 0.5480 0.5430 0.5390 0.5380 0.5360
36.455000 0.5340 0.5320 0.5310 0.5270 0.5230
36.542849 0.5180 0.5110 0.5070 0.5060 0.5020
36.631000 0.4990 0.4990 0.4970 0.4950 0.4880
36.718849 0.4860 0.4840 0.4790 0.4770 0.4740
36.806000 0.4720 0.4700 0.4600 0.4560 0.4520
36.893849 0.4470 0.4450 0.4420 0.4400 0.4360
36.982000 0.4350 0.4330 0.4310 0.4290 0.4280
37.069849 0.4280 0.4280 0.4260 0.4240 0.4220
37.157000 0.4220 0.4200 0.4170 0.4170 0.4150
37.244849 0.4170 0.4200 0.4200 0.4190 0.4170
37.333000 0.4190 0.4190 0.4200 0.4200 0.4200
37.420849 0.4190 0.4190 0.4190 0.4200 0.4200
37.508000 0.4240 0.4240 0.4260 0.4260 0.4280
37.595849 0.4280 0.4310 0.4310 0.4280 0.4240
37.684000 0.4220 0.4200 0.4190 0.4190 0.4190
37.771849 0.4190 0.4200 0.4240 0.4240 0.4240
37.860000 0.4260 0.4260 0.4280 0.4290 0.4290
37.947849 0.4290 0.4290 0.4290
##END=
