##TITLE=1,2-DICHLOROBUTANE
##JCAMP-DX=4.24
##DATA TYPE=INFRARED SPECTRUM
##CLASS=COBLENTZ
##ORIGIN=W.T. BOLLETER
##OWNER=COBLENTZ SOCIETY
Collection (C) 2018 copyright by the U.S. Secretary of Commerce
on behalf of the United States of America. All rights reserved.
##DATE=Not specified, most likely prior to 1970
##CAS REGISTRY NO=616-21-7
##MOLFORM=C4 H8 Cl2
##SOURCE REFERENCE=COBLENTZ NO. 4499
##$NIST SOURCE=COBLENTZ
##$NIST IMAGE=cob4499
##SPECTROMETER/DATA SYSTEM=Not specified, most likely a prism, grating, or hybrid spectrometer.
##PATH LENGTH=0.0025 CM
##SAMPLING PROCEDURE=TRANSMISSION
##RESOLUTION=4
##DATA PROCESSING=DIGITIZED BY NIST FROM HARD COPY
##XUNITS=MICROMETERS
##YUNITS=TRANSMITTANCE
##XFACTOR=1.000000
##YFACTOR=1
##DELTAX=000.017557
##FIRSTX=14.509
##LASTX=37.983
##FIRSTY=0.183
##MAXX=37.983
##MINX=14.509
##MAXY=0.969
##MINY=0.019
##NPOINTS=1338
##XYDATA=(X++(Y..Y))
14.509000 0.1830 0.1810 0.1790 0.1770 0.1760
14.596849 0.1700 0.1670 0.1580 0.1510 0.1400
14.685000 0.1280 0.1080 0.1010 0.0990 0.0970
14.772849 0.0780 0.0640 0.0560 0.0510 0.0510
14.860000 0.0490 0.0400 0.0370 0.0320 0.0280
14.947849 0.0260 0.0240 0.0240 0.0230 0.0230
15.036000 0.0230 0.0230 0.0230 0.0230 0.0230
15.123849 0.0230 0.0230 0.0230 0.0210 0.0210
15.211000 0.0190 0.0190 0.0190 0.0210 0.0210
15.298849 0.0210 0.0210 0.0210 0.0230 0.0230
15.387000 0.0230 0.0240 0.0240 0.0260 0.0260
15.474849 0.0280 0.0280 0.0320 0.0350 0.0390
15.563000 0.0440 0.0480 0.0480 0.0490 0.0510
15.650849 0.0560 0.0580 0.0620 0.0710 0.0850
15.738000 0.0970 0.0990 0.1010 0.1030 0.1040
15.825849 0.1060 0.1060 0.1030 0.1010 0.0990
15.914000 0.0990 0.0970 0.0960 0.0850 0.0850
16.001849 0.0690 0.0510 0.0490 0.0460 0.0420
16.089000 0.0400 0.0400 0.0390 0.0390 0.0390
16.176849 0.0400 0.0420 0.0480 0.0490 0.0510
16.265000 0.0550 0.0620 0.0760 0.0920 0.1120
16.352849 0.1280 0.1510 0.1760 0.1990 0.2240
16.440000 0.2470 0.2610 0.2930 0.3270 0.3570
16.527849 0.3870 0.4140 0.4370 0.4530 0.4760
16.616000 0.5000 0.5050 0.5230 0.5330 0.5490
16.703849 0.5600 0.5740 0.5960 0.6010 0.6150
16.792000 0.6220 0.6310 0.6450 0.6470 0.6490
16.879849 0.6600 0.6630 0.6650 0.6690 0.6740
16.967000 0.6790 0.6810 0.6850 0.6880 0.6920
17.054849 0.6950 0.6990 0.6990 0.7020 0.7060
17.143000 0.7080 0.7090 0.7110 0.7130 0.7170
17.230849 0.7180 0.7200 0.7200 0.7220 0.7220
17.318000 0.7240 0.7240 0.7270 0.7290 0.7310
17.405849 0.7310 0.7310 0.7310 0.7290 0.7270
17.494000 0.7270 0.7240 0.7180 0.7170 0.7150
17.581849 0.7110 0.7080 0.7020 0.7010 0.6990
17.669000 0.6970 0.6860 0.6770 0.6690 0.6560
17.756849 0.6490 0.6350 0.6200 0.6100 0.5830
17.845000 0.5670 0.5480 0.5280 0.5000 0.4640
17.932849 0.4410 0.4050 0.3640 0.3300 0.2950
18.020000 0.2590 0.2290 0.1990 0.1850 0.1700
18.107849 0.1600 0.1510 0.1490 0.1510 0.1580
18.196000 0.1690 0.1850 0.2040 0.2400 0.2680
18.283849 0.2980 0.3270 0.3540 0.3860 0.4110
18.372000 0.4440 0.4690 0.4960 0.5050 0.5190
18.459849 0.5320 0.5440 0.5560 0.5600 0.5600
18.547000 0.5580 0.5580 0.5530 0.5490 0.5370
18.634849 0.5230 0.5050 0.4980 0.4780 0.4510
18.723000 0.4320 0.4070 0.3890 0.3620 0.3360
18.810849 0.3130 0.3000 0.2820 0.2650 0.2540
18.898000 0.2500 0.2400 0.2360 0.2360 0.2410
18.985849 0.2540 0.2650 0.2770 0.2900 0.3040
19.074000 0.3180 0.3410 0.3590 0.3770 0.3890
19.161849 0.4030 0.4190 0.4350 0.4510 0.4510
19.249000 0.4570 0.4640 0.4660 0.4670 0.4670
19.336849 0.4670 0.4670 0.4690 0.4710 0.4750
19.425000 0.4800 0.4870 0.5010 0.5140 0.5190
19.512849 0.5260 0.5580 0.5760 0.5990 0.6200
19.601000 0.6400 0.6600 0.6720 0.6970 0.7150
19.688849 0.7290 0.7470 0.7540 0.7680 0.7750
19.776000 0.7810 0.7880 0.8000 0.8020 0.8070
19.863849 0.8140 0.8180 0.8230 0.8270 0.8290
19.952000 0.8340 0.8390 0.8410 0.8450 0.8460
20.039849 0.8460 0.8480 0.8480 0.8480 0.8500
20.127000 0.8520 0.8520 0.8540 0.8540 0.8540
20.214849 0.8540 0.8550 0.8550 0.8570 0.8570
20.303000 0.8570 0.8570 0.8570 0.8570 0.8570
20.390849 0.8550 0.8540 0.8540 0.8540 0.8520
20.478000 0.8520 0.8500 0.8500 0.8500 0.8480
20.565849 0.8480 0.8460 0.8460 0.8450 0.8410
20.654000 0.8410 0.8390 0.8390 0.8380 0.8360
20.741849 0.8320 0.8290 0.8250 0.8230 0.8200
20.830000 0.8180 0.8160 0.8110 0.8070 0.8020
20.917849 0.8000 0.8000 0.7950 0.7880 0.7810
21.005000 0.7720 0.7630 0.7590 0.7520 0.7500
21.092849 0.7410 0.7330 0.7220 0.7080 0.6990
21.181000 0.6850 0.6720 0.6530 0.6380 0.6260
21.268849 0.6100 0.5970 0.5650 0.5490 0.5240
21.356000 0.5080 0.4960 0.4690 0.4510 0.4340
21.443849 0.4110 0.3890 0.3640 0.3410 0.3220
21.532000 0.3020 0.2900 0.2790 0.2720 0.2680
21.619849 0.2610 0.2560 0.2500 0.2500 0.2580
21.707000 0.2680 0.2770 0.2900 0.3020 0.3200
21.794849 0.3480 0.3610 0.3770 0.4020 0.4210
21.883000 0.4410 0.4570 0.4820 0.4940 0.5050
21.970849 0.5170 0.5400 0.5760 0.5940 0.6080
22.059000 0.6220 0.6350 0.6470 0.6560 0.6670
22.146849 0.6740 0.6850 0.6990 0.7090 0.7180
22.234000 0.7270 0.7330 0.7380 0.7410 0.7490
22.321849 0.7520 0.7610 0.7680 0.7720 0.7770
22.410000 0.7840 0.7860 0.7900 0.7970 0.8000
22.497849 0.8040 0.8040 0.8070 0.8070 0.8090
22.585000 0.8110 0.8140 0.8180 0.8220 0.8230
22.672849 0.8250 0.8270 0.8290 0.8290 0.8300
22.761000 0.8300 0.8320 0.8360 0.8380 0.8380
22.848849 0.8390 0.8390 0.8410 0.8430 0.8450
22.936000 0.8460 0.8480 0.8480 0.8500 0.8500
23.023849 0.8520 0.8520 0.8540 0.8550 0.8550
23.112000 0.8570 0.8570 0.8590 0.8590 0.8610
23.199849 0.8610 0.8620 0.8620 0.8620 0.8620
23.287000 0.8620 0.8610 0.8610 0.8610 0.8610
23.374849 0.8610 0.8610 0.8610 0.8590 0.8590
23.463000 0.8590 0.8590 0.8570 0.8570 0.8550
23.550849 0.8550 0.8540 0.8520 0.8520 0.8500
23.639000 0.8500 0.8480 0.8480 0.8460 0.8430
23.726849 0.8410 0.8410 0.8390 0.8380 0.8340
23.814000 0.8300 0.8250 0.8220 0.8180 0.8130
23.901849 0.8070 0.8040 0.8020 0.7980 0.7900
23.990000 0.7820 0.7740 0.7650 0.7560 0.7520
24.077849 0.7470 0.7290 0.7150 0.7060 0.7010
24.165000 0.6970 0.6830 0.6690 0.6580 0.6470
24.252849 0.6290 0.6130 0.5990 0.5870 0.5780
24.341000 0.5690 0.5560 0.5510 0.5390 0.5330
24.428849 0.5320 0.5300 0.5280 0.5260 0.5230
24.516000 0.5210 0.5210 0.5210 0.5210 0.5210
24.603849 0.5210 0.5210 0.5210 0.5210 0.5190
24.692000 0.5170 0.5120 0.5100 0.5050 0.4940
24.779849 0.4590 0.4510 0.4410 0.4340 0.4300
24.868000 0.4300 0.4250 0.4210 0.4120 0.4030
24.955849 0.3930 0.3790 0.3640 0.3500 0.3360
25.043000 0.3220 0.3040 0.2980 0.2790 0.2720
25.130849 0.2660 0.2610 0.2520 0.2500 0.2360
25.219000 0.2290 0.2220 0.2180 0.2170 0.2170
25.306849 0.2150 0.2130 0.2130 0.2130 0.2150
25.394000 0.2200 0.2220 0.2250 0.2290 0.2310
25.481849 0.2340 0.2380 0.2470 0.2560 0.2650
25.570000 0.2740 0.2810 0.2880 0.2930 0.3000
25.657849 0.3020 0.3040 0.3090 0.3090 0.3110
25.745000 0.3110 0.3140 0.3140 0.3140 0.3130
25.832849 0.3130 0.3110 0.3040 0.3020 0.3020
25.921000 0.3000 0.2950 0.2910 0.2880 0.2810
26.008849 0.2740 0.2720 0.2700 0.2660 0.2610
26.097000 0.2580 0.2520 0.2500 0.2500 0.2490
26.184849 0.2430 0.2410 0.2380 0.2360 0.2340
26.272000 0.2330 0.2330 0.2330 0.2330 0.2360
26.359849 0.2400 0.2430 0.2490 0.2520 0.2540
26.448000 0.2630 0.2700 0.2740 0.2770 0.2980
26.535849 0.3220 0.3360 0.3480 0.3610 0.3770
26.623000 0.3960 0.4120 0.4300 0.4480 0.4620
26.710849 0.4800 0.4980 0.5010 0.5140 0.5230
26.799000 0.5390 0.5530 0.5640 0.5720 0.5850
26.886849 0.5990 0.6040 0.6170 0.6280 0.6370
26.974000 0.6400 0.6470 0.6510 0.6580 0.6670
27.061849 0.6690 0.6720 0.6760 0.6810 0.6880
27.150000 0.6920 0.6950 0.6970 0.6990 0.6990
27.237849 0.7010 0.7010 0.7010 0.7020 0.7040
27.326000 0.7040 0.7040 0.7040 0.7020 0.7020
27.413849 0.7010 0.7010 0.6990 0.6970 0.6920
27.501000 0.6880 0.6860 0.6830 0.6790 0.6740
27.588849 0.6700 0.6670 0.6610 0.6530 0.6490
27.677000 0.6420 0.6310 0.6280 0.6200 0.6120
27.764849 0.6030 0.5990 0.5870 0.5810 0.5760
27.852000 0.5670 0.5600 0.5530 0.5510 0.5490
27.939849 0.5460 0.5400 0.5370 0.5320 0.5260
28.028000 0.5230 0.5190 0.5170 0.5170 0.5170
28.115849 0.5160 0.5160 0.5160 0.5160 0.5160
28.203000 0.5170 0.5170 0.5170 0.5190 0.5280
28.290849 0.5300 0.5320 0.5330 0.5330 0.5370
28.379000 0.5370 0.5400 0.5510 0.5530 0.5600
28.466849 0.5690 0.5710 0.5720 0.5830 0.5970
28.554000 0.6010 0.6040 0.6130 0.6190 0.6220
28.641849 0.6310 0.6400 0.6510 0.6600 0.6690
28.730000 0.6760 0.6790 0.6850 0.6920 0.6950
28.817849 0.6990 0.7010 0.7080 0.7090 0.7150
28.906000 0.7200 0.7220 0.7240 0.7270 0.7290
28.993849 0.7310 0.7330 0.7340 0.7360 0.7360
29.081000 0.7360 0.7360 0.7360 0.7360 0.7360
29.168849 0.7360 0.7360 0.7380 0.7380 0.7380
29.257000 0.7360 0.7330 0.7310 0.7270 0.7240
29.344849 0.7200 0.7170 0.7130 0.7090 0.7080
29.432000 0.7060 0.7040 0.7020 0.7010 0.6990
29.519849 0.6900 0.6850 0.6810 0.6700 0.6600
29.608000 0.6510 0.6470 0.6380 0.6280 0.6240
29.695849 0.6190 0.6120 0.6030 0.5990 0.5880
29.783000 0.5760 0.5650 0.5530 0.5480 0.5320
29.870849 0.5230 0.5170 0.5120 0.5030 0.5000
29.959000 0.4920 0.4870 0.4800 0.4730 0.4710
30.046849 0.4690 0.4670 0.4640 0.4600 0.4590
30.135000 0.4530 0.4510 0.4500 0.4480 0.4480
30.222849 0.4480 0.4500 0.4500 0.4510 0.4530
30.310000 0.4550 0.4570 0.4590 0.4600 0.4600
30.397849 0.4620 0.4640 0.4660 0.4670 0.4690
30.486000 0.4690 0.4730 0.4760 0.4820 0.4830
30.573849 0.4850 0.4850 0.4910 0.4920 0.4940
30.661000 0.5000 0.5100 0.5190 0.5260 0.5300
30.748849 0.5370 0.5490 0.5550 0.5650 0.5690
30.837000 0.5800 0.5900 0.5990 0.6060 0.6060
30.924849 0.6100 0.6130 0.6310 0.6450 0.6560
31.012000 0.6670 0.6790 0.6880 0.6970 0.7020
31.099849 0.7180 0.7270 0.7340 0.7380 0.7500
31.188000 0.7580 0.7650 0.7740 0.7810 0.7840
31.275849 0.7970 0.8020 0.8070 0.8090 0.8130
31.364000 0.8180 0.8230 0.8270 0.8290 0.8300
31.451849 0.8340 0.8380 0.8430 0.8480 0.8520
31.539000 0.8540 0.8570 0.8590 0.8610 0.8620
31.626849 0.8660 0.8680 0.8700 0.8710 0.8730
31.715000 0.8730 0.8750 0.8750 0.8750 0.8750
31.802849 0.8770 0.8800 0.8820 0.8840 0.8860
31.890000 0.8890 0.8930 0.8950 0.8980 0.9000
31.977849 0.9000 0.9020 0.9020 0.9030 0.9030
32.066000 0.9050 0.9050 0.9090 0.9090 0.9110
32.153849 0.9120 0.9120 0.9120 0.9140 0.9160
32.241000 0.9160 0.9160 0.9180 0.9180 0.9190
32.328849 0.9190 0.9210 0.9230 0.9250 0.9270
32.417000 0.9270 0.9270 0.9270 0.9280 0.9280
32.504849 0.9280 0.9300 0.9320 0.9320 0.9320
32.593000 0.9340 0.9350 0.9390 0.9480 0.9500
32.680849 0.9500 0.9510 0.9530 0.9530 0.9530
32.768000 0.9570 0.9570 0.9570 0.9590 0.9600
32.855849 0.9640 0.9660 0.9670 0.9690 0.9690
32.944000 0.9690 0.9690 0.9670 0.9660 0.9620
33.031849 0.9590 0.9570 0.9550 0.9530 0.9510
33.119000 0.9430 0.9390 0.9350 0.9340 0.9320
33.206849 0.9320 0.9320 0.9320 0.9320 0.9320
33.295000 0.9320 0.9320 0.9340 0.9340 0.9340
33.382849 0.9350 0.9350 0.9390 0.9390 0.9390
33.470000 0.9410 0.9440 0.9440 0.9440 0.9460
33.557849 0.9460 0.9460 0.9480 0.9480 0.9480
33.646000 0.9480 0.9480 0.9480 0.9500 0.9500
33.733849 0.9500 0.9500 0.9500 0.9500 0.9480
33.822000 0.9480 0.9480 0.9480 0.9460 0.9460
33.909849 0.9460 0.9440 0.9440 0.9440 0.9440
33.997000 0.9430 0.9410 0.9410 0.9430 0.9430
34.084849 0.9430 0.9430 0.9430 0.9430 0.9430
34.173000 0.9430 0.9430 0.9410 0.9410 0.9410
34.260849 0.9410 0.9410 0.9410 0.9430 0.9430
34.348000 0.9430 0.9440 0.9440 0.9440 0.9440
34.435849 0.9440 0.9430 0.9430 0.9430 0.9410
34.524000 0.9410 0.9410 0.9410 0.9390 0.9390
34.611849 0.9390 0.9390 0.9390 0.9390 0.9390
34.699000 0.9390 0.9370 0.9370 0.9370 0.9370
34.786849 0.9350 0.9350 0.9370 0.9370 0.9390
34.875000 0.9390 0.9390 0.9390 0.9390 0.9410
34.962849 0.9430 0.9430 0.9440 0.9460 0.9480
35.050000 0.9480 0.9500 0.9500 0.9530 0.9530
35.137849 0.9570 0.9570 0.9590 0.9600 0.9620
35.226000 0.9640 0.9660 0.9660 0.9660 0.9640
35.313849 0.9620 0.9620 0.9620 0.9620 0.9620
35.402000 0.9620 0.9620 0.9600 0.9600 0.9600
35.489849 0.9600 0.9600 0.9620 0.9620 0.9600
35.577000 0.9590 0.9590 0.9570 0.9570 0.9570
35.664849 0.9550 0.9550 0.9550 0.9550 0.9550
35.753000 0.9550 0.9550 0.9530 0.9530 0.9510
35.840849 0.9500 0.9500 0.9480 0.9440 0.9430
35.928000 0.9430 0.9410 0.9410 0.9390 0.9370
36.015849 0.9350 0.9340 0.9320 0.9320 0.9300
36.104000 0.9270 0.9230 0.9210 0.9210 0.9190
36.191849 0.9190 0.9180 0.9160 0.9120 0.9110
36.279000 0.9110 0.9110 0.9090 0.9070 0.9050
36.366849 0.9050 0.9030 0.9020 0.9020 0.9000
36.455000 0.9000 0.8980 0.8950 0.8870 0.8860
36.542849 0.8840 0.8820 0.8800 0.8800 0.8800
36.631000 0.8790 0.8790 0.8770 0.8770 0.8770
36.718849 0.8750 0.8730 0.8700 0.8680 0.8660
36.806000 0.8640 0.8620 0.8610 0.8590 0.8570
36.893849 0.8550 0.8550 0.8540 0.8540 0.8520
36.982000 0.8520 0.8500 0.8500 0.8480 0.8460
37.069849 0.8450 0.8450 0.8430 0.8390 0.8380
37.157000 0.8380 0.8360 0.8340 0.8340 0.8340
37.244849 0.8340 0.8320 0.8320 0.8300 0.8290
37.333000 0.8290 0.8270 0.8270 0.8250 0.8230
37.420849 0.8220 0.8220 0.8220 0.8220 0.8220
37.508000 0.8220 0.8200 0.8200 0.8200 0.8200
37.595849 0.8180 0.8160 0.8160 0.8140 0.8140
37.684000 0.8140 0.8130 0.8110 0.8110 0.8110
37.771849 0.8090 0.8090 0.8090 0.8090 0.8090
37.860000 0.8070 0.8070 0.8070 0.8070 0.8070
37.947849 0.8060 0.8040 0.8020
##END=
