##TITLE=1,3-DIIODOPROPANE
$$ E.K. (W.L.)
##JCAMP-DX=4.24
##DATA TYPE=INFRARED SPECTRUM
##CLASS=COBLENTZ
##ORIGIN=WYANDOTTE CHEMICALS CORP., WYANDOTTE, MICHIGAN, USA
##OWNER=COBLENTZ SOCIETY
Collection (C) 2018 copyright by the U.S. Secretary of Commerce
on behalf of the United States of America. All rights reserved.
##DATE=Not specified, most likely prior to 1970
##CAS REGISTRY NO=627-31-6
##MOLFORM=C3 H6 I2
##SOURCE REFERENCE=COBLENTZ NO. 1312
##$NIST SOURCE=COBLENTZ
##$NIST IMAGE=cob1312
##SPECTROMETER/DATA SYSTEM=Not specified, most likely a prism, grating, or hybrid spectrometer.
##STATE=LIQUID
##PATH LENGTH=0.003 CM
##SAMPLING PROCEDURE=TRANSMISSION
##RESOLUTION=4
##DATA PROCESSING=DIGITIZED BY NIST FROM HARD COPY
##XUNITS=MICROMETERS
##YUNITS=TRANSMITTANCE
##XFACTOR=1.000000
##YFACTOR=1
##DELTAX=000.006793
##FIRSTX=2.014
##LASTX=15.9798
##FIRSTY=0.988
##MAXX=15.9798
##MINX=2.014
##MAXY=0.989
##MINY=0.027
##NPOINTS=2057
##XYDATA=(X++(Y..Y))
2.014000 0.9880 0.9880 0.9880 0.9880 0.9880
2.047981 0.9860 0.9860 0.9880 0.9890 0.9890
2.082000 0.9890 0.9880 0.9880 0.9880 0.9860
2.115981 0.9860 0.9860 0.9860 0.9860 0.9860
2.149000 0.9860 0.9860 0.9810 0.9720 0.9500
2.182981 0.9300 0.9270 0.9280 0.9300 0.9320
2.217000 0.9320 0.9320 0.9340 0.9350 0.9370
2.250981 0.9370 0.9370 0.9370 0.9350 0.9320
2.285000 0.9280 0.9250 0.9230 0.9270 0.9270
2.318981 0.9270 0.9270 0.9280 0.9300 0.9340
2.353000 0.9370 0.9350 0.9350 0.9350 0.9350
2.386981 0.9350 0.9350 0.9350 0.9370 0.9390
2.421000 0.9390 0.9400 0.9420 0.9440 0.9440
2.454981 0.9440 0.9440 0.9420 0.9420 0.9420
2.489000 0.9420 0.9400 0.9400 0.9440 0.9440
2.522981 0.9450 0.9470 0.9470 0.9450 0.9450
2.557000 0.9440 0.9440 0.9440 0.9440 0.9440
2.590981 0.9440 0.9450 0.9450 0.9440 0.9470
2.625000 0.9470 0.9470 0.9490 0.9500 0.9490
2.658981 0.9490 0.9470 0.9450 0.9440 0.9440
2.693000 0.9420 0.9400 0.9390 0.9390 0.9470
2.726981 0.9470 0.9490 0.9470 0.9450 0.9420
2.761000 0.9400 0.9400 0.9400 0.9390 0.9390
2.794981 0.9370 0.9370 0.9350 0.9340 0.9340
2.829000 0.9340 0.9320 0.9320 0.9320 0.9300
2.862981 0.9300 0.9280 0.9270 0.9270 0.9270
2.897000 0.9270 0.9230 0.9220 0.9220 0.9200
2.930981 0.9180 0.9180 0.9170 0.9170 0.9170
2.965000 0.9150 0.9150 0.9130 0.9120 0.9120
2.998981 0.9120 0.9120 0.9100 0.9100 0.9100
3.033000 0.9100 0.9100 0.9100 0.9100 0.9100
3.066981 0.9080 0.9080 0.9080 0.9060 0.9050
3.100000 0.9010 0.9010 0.9000 0.9000 0.8980
3.133981 0.8960 0.8910 0.8900 0.8860 0.8830
3.168000 0.8810 0.8790 0.8790 0.8790 0.8790
3.201981 0.8790 0.8790 0.8790 0.8790 0.8780
3.236000 0.8690 0.8620 0.8570 0.8570 0.8520
3.269981 0.8490 0.8440 0.8300 0.8200 0.8100
3.304000 0.7950 0.7680 0.7390 0.7320 0.7300
3.337981 0.7340 0.7360 0.7370 0.7390 0.6270
3.372000 0.5140 0.4430 0.4390 0.4430 0.4990
3.405981 0.5540 0.6490 0.6860 0.6920 0.6920
3.440000 0.6780 0.6420 0.6090 0.5870 0.5830
3.473981 0.5870 0.6320 0.6860 0.7340 0.7590
3.508000 0.7800 0.7810 0.7780 0.7630 0.7470
3.541981 0.7320 0.7320 0.7370 0.7540 0.7740
3.576000 0.7960 0.8170 0.8370 0.8520 0.8660
3.609981 0.8740 0.8810 0.8810 0.8810 0.8790
3.644000 0.8790 0.8780 0.8790 0.8860 0.8880
3.677981 0.8930 0.8960 0.8960 0.8960 0.8960
3.712000 0.8960 0.8980 0.8980 0.8980 0.9000
3.745981 0.9000 0.9000 0.9000 0.9000 0.8980
3.780000 0.8960 0.8960 0.8950 0.8910 0.8900
3.813981 0.8860 0.8830 0.8780 0.8740 0.8740
3.848000 0.8780 0.8830 0.8860 0.8900 0.8960
3.881981 0.8980 0.9000 0.9060 0.9080 0.9120
3.916000 0.9120 0.9080 0.9060 0.9050 0.9050
3.949981 0.9050 0.9060 0.9060 0.9080 0.9080
3.984000 0.9100 0.9080 0.9080 0.9050 0.9010
4.017981 0.8980 0.8980 0.8980 0.9000 0.9060
4.051000 0.9060 0.9060 0.9010 0.9010 0.9010
4.084981 0.9010 0.9000 0.8980 0.8960 0.8960
4.119000 0.8980 0.8980 0.9000 0.9010 0.9050
4.152981 0.9050 0.9000 0.9000 0.8980 0.8960
4.187000 0.8960 0.8910 0.8880 0.8880 0.8790
4.220981 0.8780 0.8710 0.8710 0.8710 0.8710
4.255000 0.8760 0.8810 0.8840 0.8880 0.8900
4.288981 0.8930 0.8950 0.8950 0.8960 0.8980
4.323000 0.8980 0.8980 0.9000 0.9000 0.9000
4.356981 0.9000 0.9000 0.8980 0.8960 0.8950
4.391000 0.8930 0.8910 0.8880 0.8810 0.8710
4.424981 0.8590 0.8570 0.8570 0.8590 0.8610
4.459000 0.8690 0.8740 0.8790 0.8830 0.8840
4.492981 0.8880 0.8910 0.8980 0.8980 0.8980
4.527000 0.8930 0.8900 0.8880 0.8880 0.8880
4.560981 0.8880 0.8880 0.8880 0.8860 0.8830
4.595000 0.8790 0.8790 0.8790 0.8790 0.8790
4.628981 0.8790 0.8810 0.8830 0.8810 0.8810
4.663000 0.8810 0.8810 0.8810 0.8790 0.8780
4.696981 0.8780 0.8760 0.8740 0.8740 0.8730
4.731000 0.8710 0.8690 0.8680 0.8680 0.8680
4.764981 0.8680 0.8680 0.8680 0.8680 0.8730
4.799000 0.8780 0.8810 0.8830 0.8860 0.8910
4.832981 0.8950 0.8980 0.9000 0.9030 0.9080
4.867000 0.9100 0.9100 0.9080 0.9050 0.9010
4.900981 0.9000 0.8980 0.8980 0.9000 0.9030
4.934000 0.9060 0.9060 0.9060 0.9050 0.9030
4.967981 0.9010 0.9000 0.8980 0.8950 0.8900
5.002000 0.8810 0.8740 0.8740 0.8760 0.8760
5.035981 0.8780 0.8780 0.8790 0.8790 0.8780
5.070000 0.8790 0.8790 0.8790 0.8810 0.8790
5.103981 0.8810 0.8840 0.8860 0.8880 0.8960
5.138000 0.8960 0.8900 0.8880 0.8830 0.8790
5.171981 0.8780 0.8780 0.8780 0.8780 0.8760
5.206000 0.8760 0.8760 0.8760 0.8760 0.8760
5.239981 0.8760 0.8760 0.8760 0.8780 0.8840
5.274000 0.8900 0.8930 0.8950 0.8960 0.8960
5.307981 0.8980 0.8980 0.8980 0.8980 0.8980
5.342000 0.8980 0.8980 0.8980 0.8980 0.8980
5.375981 0.8980 0.8980 0.8960 0.8950 0.8930
5.410000 0.8910 0.8900 0.8880 0.8840 0.8840
5.443981 0.8830 0.8830 0.8830 0.8810 0.8780
5.478000 0.8690 0.8660 0.8660 0.8660 0.8680
5.511981 0.8690 0.8710 0.8690 0.8740 0.8780
5.546000 0.8790 0.8790 0.8810 0.8810 0.8810
5.579981 0.8860 0.8860 0.8860 0.8880 0.8860
5.614000 0.8780 0.8760 0.8760 0.8790 0.8830
5.647981 0.8830 0.8790 0.8790 0.8780 0.8740
5.682000 0.8710 0.8710 0.8740 0.8760 0.8790
5.715981 0.8790 0.8780 0.8760 0.8710 0.8730
5.750000 0.8710 0.8710 0.8690 0.8640 0.8610
5.783981 0.8610 0.8610 0.8620 0.8680 0.8710
5.818000 0.8730 0.8760 0.8740 0.8680 0.8660
5.851981 0.8660 0.8660 0.8660 0.8660 0.8660
5.885000 0.8660 0.8660 0.8660 0.8660 0.8660
5.918981 0.8660 0.8640 0.8620 0.8610 0.8560
5.953000 0.8470 0.8350 0.8220 0.8030 0.7780
5.986981 0.7490 0.7100 0.6640 0.6320 0.6020
6.021000 0.5980 0.6020 0.7290 0.7760 0.8070
6.054981 0.8220 0.8340 0.8400 0.8460 0.8460
6.089000 0.8460 0.8460 0.8460 0.8460 0.8400
6.122981 0.8390 0.8370 0.8370 0.8340 0.8300
6.157000 0.8250 0.8200 0.8170 0.8150 0.8120
6.190981 0.8070 0.7960 0.7830 0.7710 0.7630
6.225000 0.7590 0.7590 0.7580 0.7580 0.7580
6.258981 0.7580 0.7640 0.7760 0.7860 0.7900
6.293000 0.8000 0.8220 0.8270 0.8300 0.8340
6.326981 0.8340 0.8340 0.8340 0.8350 0.8350
6.361000 0.8390 0.8420 0.8470 0.8470 0.8470
6.394981 0.8470 0.8470 0.8460 0.8420 0.8390
6.429000 0.8350 0.8300 0.8290 0.8270 0.8220
6.462981 0.8080 0.8070 0.8080 0.8170 0.8220
6.497000 0.8250 0.8300 0.8350 0.8400 0.8440
6.530981 0.8440 0.8440 0.8440 0.8400 0.8350
6.565000 0.8340 0.8320 0.8300 0.8290 0.8290
6.598981 0.8270 0.8270 0.8250 0.8250 0.8240
6.633000 0.8240 0.8220 0.8200 0.8180 0.8170
6.666981 0.8170 0.8150 0.8150 0.8130 0.8130
6.701000 0.8120 0.8120 0.8120 0.8100 0.8080
6.734981 0.8080 0.8070 0.8030 0.8000 0.7950
6.769000 0.7900 0.7740 0.7690 0.7630 0.7610
6.802981 0.7540 0.7460 0.7460 0.7440 0.7300
6.836000 0.7080 0.6830 0.6540 0.6340 0.6290
6.869981 0.6220 0.6170 0.6100 0.6020 0.5920
6.904000 0.5760 0.5560 0.5320 0.5020 0.4230
6.937981 0.3700 0.3090 0.2770 0.2300 0.2280
6.972000 0.2300 0.2380 0.2430 0.2470 0.2040
7.005981 0.1670 0.1370 0.1200 0.1010 0.0890
7.040000 0.0820 0.0860 0.1110 0.1640 0.2520
7.073981 0.3290 0.3990 0.4560 0.4800 0.5020
7.108000 0.5340 0.5850 0.6170 0.6340 0.6510
7.141981 0.6680 0.6830 0.6980 0.7100 0.7220
7.176000 0.7300 0.7360 0.7390 0.7410 0.7440
7.209981 0.7470 0.7510 0.7540 0.7590 0.7630
7.244000 0.7630 0.7660 0.7660 0.7640 0.7630
7.277981 0.7630 0.7640 0.7660 0.7680 0.7780
7.312000 0.7780 0.7760 0.7740 0.7740 0.7760
7.345981 0.7760 0.7740 0.7680 0.7580 0.7490
7.380000 0.7460 0.7290 0.7000 0.6630 0.6150
7.413981 0.5600 0.4330 0.3620 0.3060 0.2360
7.448000 0.2310 0.2380 0.3900 0.4940 0.5240
7.481981 0.5540 0.5750 0.5760 0.5780 0.5830
7.516000 0.5980 0.6270 0.6530 0.6760 0.6900
7.549981 0.6970 0.7000 0.7000 0.6970 0.6680
7.584000 0.6420 0.6140 0.5920 0.5730 0.5580
7.617981 0.5480 0.5480 0.5480 0.5680 0.6100
7.652000 0.6410 0.6660 0.6830 0.6930 0.7000
7.685981 0.7050 0.7050 0.7050 0.7020 0.6980
7.720000 0.6930 0.6850 0.6750 0.6580 0.6360
7.753981 0.6100 0.5780 0.5390 0.4480 0.3940
7.787000 0.3380 0.2800 0.2310 0.1810 0.1400
7.820981 0.1040 0.0870 0.0790 0.0770 0.0760
7.855000 0.0790 0.1280 0.1860 0.2520 0.3580
7.888981 0.4380 0.4970 0.5190 0.5390 0.5680
7.923000 0.5870 0.6000 0.6120 0.6240 0.6320
7.956981 0.6390 0.6480 0.6560 0.6560 0.6560
7.991000 0.6560 0.6560 0.6560 0.6560 0.6560
8.024981 0.6560 0.6560 0.6560 0.6560 0.6560
8.059000 0.6530 0.6510 0.6490 0.6460 0.6390
8.092981 0.6340 0.6290 0.6270 0.6190 0.6090
8.127000 0.6000 0.5930 0.5850 0.5750 0.5650
8.160981 0.5530 0.5380 0.5190 0.4830 0.4550
8.195000 0.4190 0.3820 0.3550 0.3160 0.2720
8.228981 0.2280 0.1910 0.1640 0.1380 0.1090
8.263000 0.0940 0.0820 0.0740 0.0650 0.0600
8.296981 0.0600 0.0570 0.0500 0.0450 0.0380
8.331000 0.0370 0.0350 0.0320 0.0300 0.0280
8.364981 0.0270 0.0270 0.0270 0.0280 0.0280
8.399000 0.0280 0.0270 0.0270 0.0270 0.0280
8.432981 0.0280 0.0320 0.0420 0.0540 0.0820
8.467000 0.1130 0.1670 0.2330 0.2850 0.3360
8.500981 0.3790 0.4230 0.4560 0.4850 0.4970
8.535000 0.5070 0.5260 0.5410 0.5540 0.5630
8.568981 0.5730 0.5800 0.5820 0.5820 0.5850
8.603000 0.5750 0.5480 0.5260 0.5020 0.4310
8.636981 0.4010 0.3650 0.3330 0.3060 0.2820
8.671000 0.2790 0.2820 0.3410 0.3840 0.4310
8.704981 0.4650 0.4800 0.4870 0.4950 0.4970
8.738000 0.4970 0.4990 0.5040 0.5090 0.5210
8.771981 0.5380 0.5580 0.5760 0.5950 0.6150
8.806000 0.6340 0.6490 0.6640 0.6780 0.6860
8.839981 0.6930 0.6980 0.7070 0.7140 0.7220
8.874000 0.7270 0.7290 0.7300 0.7320 0.7360
8.907981 0.7360 0.7370 0.7390 0.7390 0.7390
8.942000 0.7390 0.7390 0.7390 0.7390 0.7390
8.975981 0.7370 0.7370 0.7360 0.7340 0.7340
9.010000 0.7300 0.7270 0.7240 0.7170 0.7080
9.043981 0.7000 0.6920 0.6850 0.6780 0.6730
9.078000 0.6700 0.6640 0.6610 0.6610 0.6610
9.111981 0.6630 0.6660 0.6680 0.6680 0.6680
9.146000 0.6680 0.6660 0.6590 0.6580 0.6540
9.179981 0.6490 0.6480 0.6480 0.6460 0.6440
9.214000 0.6410 0.6390 0.6390 0.6390 0.6390
9.247981 0.6370 0.6360 0.6240 0.6190 0.6040
9.282000 0.5920 0.5780 0.5760 0.5760 0.5780
9.315981 0.5830 0.5970 0.6200 0.6420 0.6630
9.350000 0.6800 0.6950 0.7080 0.7200 0.7320
9.383981 0.7410 0.7470 0.7510 0.7560 0.7610
9.418000 0.7660 0.7660 0.7660 0.7660 0.7660
9.451981 0.7660 0.7660 0.7660 0.7630 0.7610
9.486000 0.7580 0.7580 0.7560 0.7560 0.7510
9.519981 0.7490 0.7440 0.7370 0.7240 0.7140
9.554000 0.7080 0.7020 0.6930 0.6830 0.6780
9.587981 0.6750 0.6700 0.6680 0.6710 0.6830
9.622000 0.6880 0.7020 0.7070 0.7120 0.7200
9.655981 0.7320 0.7420 0.7510 0.7560 0.7580
9.689000 0.7580 0.7610 0.7640 0.7680 0.7680
9.722981 0.7690 0.7690 0.7710 0.7710 0.7710
9.757000 0.7710 0.7710 0.7690 0.7690 0.7690
9.790981 0.7690 0.7690 0.7690 0.7690 0.7680
9.825000 0.7680 0.7680 0.7680 0.7740 0.7780
9.858981 0.7810 0.7850 0.7880 0.7910 0.7950
9.893000 0.7960 0.8000 0.8030 0.8050 0.8080
9.926981 0.8100 0.8120 0.8130 0.8150 0.8150
9.961000 0.8130 0.8150 0.8150 0.8150 0.8180
9.994981 0.8180 0.8180 0.8180 0.8180 0.8180
10.029000 0.8200 0.8200 0.8200 0.8180 0.8180
10.062981 0.8180 0.8180 0.8220 0.8220 0.8240
10.097000 0.8250 0.8250 0.8250 0.8290 0.8290
10.130981 0.8290 0.8300 0.8300 0.8300 0.8300
10.165000 0.8300 0.8300 0.8300 0.8300 0.8300
10.198981 0.8300 0.8290 0.8290 0.8270 0.8270
10.233000 0.8270 0.8270 0.8270 0.8270 0.8270
10.266981 0.8250 0.8250 0.8250 0.8240 0.8240
10.301000 0.8200 0.8180 0.8170 0.8120 0.8100
10.334981 0.8100 0.8080 0.8020 0.7980 0.7950
10.369000 0.7830 0.7730 0.7680 0.7590 0.7540
10.402981 0.7490 0.7460 0.7440 0.7460 0.7470
10.437000 0.7520 0.7580 0.7630 0.7690 0.7730
10.470981 0.7800 0.7830 0.7860 0.7880 0.7900
10.505000 0.7950 0.7980 0.8000 0.8020 0.8050
10.538981 0.8070 0.8100 0.8100 0.8100 0.8100
10.573000 0.8100 0.8100 0.8080 0.8070 0.8050
10.606981 0.8020 0.7980 0.7930 0.7830 0.7760
10.640000 0.7690 0.7680 0.7660 0.7630 0.7590
10.673981 0.7560 0.7560 0.7540 0.7560 0.7590
10.708000 0.7590 0.7610 0.7610 0.7610 0.7610
10.741981 0.7610 0.7590 0.7560 0.7520 0.7490
10.776000 0.7460 0.7420 0.7340 0.7250 0.7170
10.809981 0.7080 0.7000 0.6900 0.6800 0.6700
10.844000 0.6580 0.6460 0.6310 0.6150 0.5970
10.877981 0.5760 0.5540 0.5440 0.5290 0.5140
10.912000 0.4800 0.4700 0.4610 0.4480 0.4380
10.945981 0.4340 0.4340 0.4360 0.4430 0.4500
10.980000 0.4560 0.4680 0.4800 0.4950 0.5040
11.013981 0.5120 0.5190 0.5310 0.5460 0.5610
11.048000 0.5750 0.5800 0.5970 0.6020 0.6120
11.081981 0.6190 0.6270 0.6370 0.6480 0.6580
11.116000 0.6680 0.6760 0.6810 0.6830 0.6880
11.149981 0.6970 0.7050 0.7120 0.7150 0.7190
11.184000 0.7240 0.7250 0.7270 0.7300 0.7340
11.217981 0.7370 0.7390 0.7440 0.7460 0.7510
11.252000 0.7520 0.7540 0.7560 0.7580 0.7590
11.285981 0.7630 0.7630 0.7630 0.7630 0.7640
11.320000 0.7640 0.7640 0.7640 0.7640 0.7640
11.353981 0.7640 0.7660 0.7660 0.7660 0.7660
11.388000 0.7660 0.7660 0.7690 0.7690 0.7710
11.421981 0.7710 0.7730 0.7730 0.7740 0.7740
11.456000 0.7760 0.7760 0.7780 0.7800 0.7810
11.489981 0.7810 0.7830 0.7830 0.7860 0.7880
11.524000 0.7900 0.7910 0.7930 0.7960 0.7960
11.557981 0.7960 0.7980 0.7980 0.7980 0.7980
11.591000 0.7980 0.7980 0.7980 0.7980 0.7980
11.624981 0.8000 0.8000 0.8000 0.8020 0.8020
11.659000 0.8020 0.8030 0.8030 0.8030 0.8030
11.692981 0.8050 0.8050 0.8050 0.8050 0.8050
11.727000 0.8050 0.8050 0.8050 0.8030 0.8030
11.760981 0.8030 0.8020 0.8020 0.8020 0.8000
11.795000 0.7980 0.7980 0.7960 0.7910 0.7880
11.828981 0.7810 0.7810 0.7800 0.7800 0.7800
11.863000 0.7800 0.7800 0.7780 0.7760 0.7740
11.896981 0.7730 0.7730 0.7690 0.7680 0.7680
11.931000 0.7680 0.7690 0.7680 0.7680 0.7680
11.964981 0.7660 0.7660 0.7640 0.7630 0.7610
11.999000 0.7590 0.7540 0.7510 0.7470 0.7410
12.032981 0.7320 0.7200 0.7140 0.7030 0.6930
12.067000 0.6810 0.6710 0.6440 0.6190 0.5950
12.100981 0.5730 0.5490 0.5220 0.4680 0.4500
12.135000 0.4290 0.4160 0.3990 0.3990 0.3990
12.168981 0.4040 0.4090 0.4170 0.4330 0.4510
12.203000 0.4750 0.4890 0.5000 0.5270 0.5540
12.236981 0.5850 0.5930 0.6020 0.6190 0.6310
12.271000 0.6460 0.6540 0.6640 0.6710 0.6780
12.304981 0.6850 0.6920 0.6950 0.6970 0.6980
12.339000 0.7020 0.7070 0.7080 0.7100 0.7100
12.372981 0.7100 0.7100 0.7100 0.7100 0.7080
12.407000 0.7080 0.7070 0.7050 0.7020 0.6970
12.440981 0.6920 0.6860 0.6810 0.6780 0.6710
12.475000 0.6640 0.6510 0.6460 0.6370 0.6240
12.508981 0.6120 0.6020 0.5880 0.5710 0.5630
12.542000 0.5510 0.5410 0.5270 0.5160 0.5000
12.575981 0.4820 0.4730 0.4720 0.4610 0.4600
12.610000 0.4600 0.4630 0.4670 0.4750 0.4780
12.643981 0.4900 0.4950 0.5000 0.5140 0.5290
12.678000 0.5440 0.5630 0.5780 0.5950 0.6090
12.711981 0.6170 0.6320 0.6440 0.6540 0.6640
12.746000 0.6730 0.6800 0.6850 0.6900 0.6950
12.779981 0.7000 0.7030 0.7080 0.7120 0.7170
12.814000 0.7220 0.7220 0.7250 0.7250 0.7270
12.847981 0.7270 0.7290 0.7300 0.7300 0.7320
12.882000 0.7320 0.7320 0.7320 0.7320 0.7320
12.915981 0.7320 0.7320 0.7320 0.7320 0.7320
12.950000 0.7320 0.7320 0.7320 0.7300 0.7300
12.983981 0.7300 0.7290 0.7270 0.7220 0.7150
13.018000 0.7120 0.7080 0.7070 0.7070 0.7050
13.051981 0.7050 0.7000 0.6980 0.6950 0.6920
13.086000 0.6850 0.6810 0.6800 0.6780 0.6750
13.119981 0.6750 0.6710 0.6700 0.6700 0.6680
13.154000 0.6680 0.6660 0.6640 0.6640 0.6630
13.187981 0.6630 0.6610 0.6610 0.6590 0.6590
13.222000 0.6580 0.6560 0.6530 0.6490 0.6460
13.255981 0.6440 0.6410 0.6390 0.6370 0.6290
13.290000 0.6240 0.6170 0.6120 0.6090 0.6020
13.323981 0.5950 0.5920 0.5850 0.5800 0.5750
13.358000 0.5700 0.5610 0.5540 0.5460 0.5380
13.391981 0.5270 0.5190 0.5090 0.5000 0.4850
13.426000 0.4780 0.4680 0.4600 0.4450 0.4380
13.459981 0.4240 0.4170 0.4010 0.3920 0.3840
13.493000 0.3720 0.3530 0.3460 0.3400 0.3310
13.526981 0.3230 0.3130 0.3020 0.2910 0.2750
13.561000 0.2690 0.2670 0.2620 0.2600 0.2520
13.594981 0.2410 0.2330 0.2260 0.2180 0.2130
13.629000 0.2090 0.2080 0.2040 0.2010 0.1990
13.662981 0.1970 0.1970 0.1970 0.1970 0.1970
13.697000 0.1970 0.2010 0.2030 0.2090 0.2140
13.730981 0.2210 0.2260 0.2300 0.2360 0.2450
13.765000 0.2570 0.2650 0.2770 0.2910 0.2960
13.798981 0.3060 0.3210 0.3350 0.3430 0.3620
13.833000 0.3670 0.3800 0.3870 0.3970 0.4160
13.866981 0.4230 0.4330 0.4430 0.4480 0.4560
13.901000 0.4700 0.4770 0.4820 0.4890 0.4940
13.934981 0.4970 0.5000 0.5020 0.5070 0.5120
13.969000 0.5170 0.5240 0.5290 0.5360 0.5440
14.002981 0.5510 0.5560 0.5610 0.5710 0.5830
14.037000 0.5870 0.5930 0.5980 0.6020 0.6090
14.070981 0.6140 0.6240 0.6340 0.6420 0.6480
14.105000 0.6530 0.6610 0.6660 0.6710 0.6760
14.138981 0.6800 0.6850 0.6900 0.6930 0.6980
14.173000 0.7030 0.7070 0.7080 0.7100 0.7150
14.206981 0.7190 0.7220 0.7270 0.7290 0.7340
14.241000 0.7360 0.7360 0.7370 0.7390 0.7410
14.274981 0.7440 0.7440 0.7440 0.7460 0.7490
14.309000 0.7510 0.7520 0.7540 0.7580 0.7580
14.342981 0.7580 0.7580 0.7590 0.7590 0.7610
14.377000 0.7610 0.7610 0.7630 0.7630 0.7630
14.410981 0.7640 0.7660 0.7660 0.7680 0.7680
14.444000 0.7710 0.7710 0.7710 0.7710 0.7710
14.477981 0.7730 0.7730 0.7740 0.7760 0.7760
14.512000 0.7760 0.7760 0.7760 0.7760 0.7760
14.545981 0.7760 0.7760 0.7760 0.7760 0.7800
14.580000 0.7800 0.7800 0.7800 0.7800 0.7800
14.613981 0.7800 0.7800 0.7800 0.7800 0.7800
14.648000 0.7800 0.7800 0.7800 0.7800 0.7810
14.681981 0.7810 0.7810 0.7810 0.7810 0.7810
14.716000 0.7800 0.7800 0.7800 0.7780 0.7780
14.749981 0.7780 0.7760 0.7760 0.7760 0.7760
14.784000 0.7760 0.7760 0.7760 0.7780 0.7780
14.817981 0.7780 0.7760 0.7760 0.7760 0.7760
14.852000 0.7780 0.7800 0.7800 0.7810 0.7810
14.885981 0.7810 0.7810 0.7810 0.7810 0.7810
14.920000 0.7800 0.7800 0.7780 0.7760 0.7760
14.953981 0.7740 0.7730 0.7680 0.7660 0.7610
14.988000 0.7610 0.7590 0.7580 0.7560 0.7490
15.021981 0.7470 0.7470 0.7470 0.7470 0.7490
15.056000 0.7490 0.7510 0.7510 0.7510 0.7520
15.089981 0.7520 0.7560 0.7640 0.7660 0.7690
15.124000 0.7690 0.7690 0.7690 0.7710 0.7690
15.157981 0.7690 0.7690 0.7680 0.7660 0.7660
15.192000 0.7660 0.7660 0.7640 0.7640 0.7640
15.225981 0.7640 0.7640 0.7640 0.7640 0.7640
15.260000 0.7660 0.7640 0.7640 0.7640 0.7630
15.293981 0.7630 0.7610 0.7610 0.7610 0.7580
15.328000 0.7560 0.7560 0.7560 0.7560 0.7560
15.361981 0.7560 0.7560 0.7560 0.7560 0.7560
15.395000 0.7560 0.7560 0.7540 0.7540 0.7520
15.428981 0.7520 0.7520 0.7510 0.7510 0.7510
15.463000 0.7490 0.7490 0.7470 0.7470 0.7470
15.496981 0.7470 0.7470 0.7470 0.7470 0.7470
15.531000 0.7470 0.7470 0.7460 0.7460 0.7440
15.564981 0.7440 0.7440 0.7420 0.7420 0.7420
15.599000 0.7420 0.7420 0.7420 0.7420 0.7420
15.632981 0.7420 0.7420 0.7410 0.7410 0.7410
15.667000 0.7390 0.7390 0.7390 0.7390 0.7370
15.700981 0.7370 0.7370 0.7360 0.7360 0.7360
15.735000 0.7340 0.7340 0.7340 0.7340 0.7320
15.768981 0.7320 0.7320 0.7300 0.7300 0.7300
15.803000 0.7300 0.7290 0.7290 0.7290 0.7290
15.836981 0.7270 0.7270 0.7270 0.7270 0.7250
15.871000 0.7250 0.7250 0.7250 0.7250 0.7240
15.904981 0.7240 0.7240 0.7240 0.7240 0.7240
15.939000 0.7220 0.7220 0.7220 0.7200 0.7200
15.972981 0.7190 0.7190
##END=
