##TITLE=1,4-DIIODOBUTANE
$$ COL. CHEM.
##JCAMP-DX=4.24
##DATA TYPE=INFRARED SPECTRUM
##CLASS=COBLENTZ
##ORIGIN=WYANDOTTE CHEMICALS CORP., WYANDOTTE, MICHIGAN, USA
##OWNER=COBLENTZ SOCIETY
Collection (C) 2018 copyright by the U.S. Secretary of Commerce
on behalf of the United States of America. All rights reserved.
##DATE=Not specified, most likely prior to 1970
##CAS REGISTRY NO=628-21-7
##MOLFORM=C4 H8 I2
##SOURCE REFERENCE=COBLENTZ NO. 1313
##$NIST SOURCE=COBLENTZ
##$NIST IMAGE=cob1313
##SPECTROMETER/DATA SYSTEM=Not specified, most likely a prism, grating, or hybrid spectrometer.
##STATE=LIQUID
##PATH LENGTH=0.003 CM
##SAMPLING PROCEDURE=TRANSMISSION
##RESOLUTION=4
##DATA PROCESSING=DIGITIZED BY NIST FROM HARD COPY
##XUNITS=MICROMETERS
##YUNITS=TRANSMITTANCE
##XFACTOR=1.000000
##YFACTOR=1
##DELTAX=000.006790
##FIRSTX=2.02
##LASTX=15.9798
##FIRSTY=0.971
##MAXX=15.9798
##MINX=2.02
##MAXY=0.971
##MINY=0.039
##NPOINTS=2057
##XYDATA=(X++(Y..Y))
2.020000 0.9710 0.9690 0.9690 0.9690 0.9690
2.053964 0.9690 0.9690 0.9690 0.9690 0.9710
2.088000 0.9710 0.9710 0.9710 0.9690 0.9670
2.121964 0.9670 0.9670 0.9670 0.9640 0.9620
2.156000 0.9620 0.9600 0.9590 0.9550 0.9500
2.189964 0.9450 0.9380 0.9330 0.9310 0.9310
2.224000 0.9330 0.9350 0.9350 0.9360 0.9380
2.257964 0.9380 0.9380 0.9350 0.9310 0.9310
2.292000 0.9280 0.9280 0.9280 0.9280 0.9300
2.325964 0.9280 0.9280 0.9280 0.9280 0.9300
2.360000 0.9300 0.9300 0.9310 0.9330 0.9330
2.393964 0.9330 0.9350 0.9350 0.9350 0.9350
2.428000 0.9350 0.9350 0.9350 0.9360 0.9350
2.461964 0.9330 0.9330 0.9350 0.9350 0.9330
2.496000 0.9330 0.9350 0.9380 0.9380 0.9380
2.529964 0.9380 0.9360 0.9350 0.9310 0.9310
2.564000 0.9330 0.9330 0.9360 0.9360 0.9350
2.597964 0.9350 0.9350 0.9360 0.9360 0.9360
2.631000 0.9380 0.9380 0.9380 0.9380 0.9380
2.664964 0.9380 0.9380 0.9380 0.9360 0.9360
2.699000 0.9360 0.9360 0.9360 0.9380 0.9380
2.732964 0.9380 0.9360 0.9360 0.9360 0.9360
2.767000 0.9350 0.9350 0.9350 0.9350 0.9330
2.800964 0.9330 0.9330 0.9330 0.9310 0.9310
2.835000 0.9300 0.9280 0.9280 0.9280 0.9280
2.868964 0.9280 0.9280 0.9280 0.9260 0.9260
2.903000 0.9260 0.9260 0.9250 0.9250 0.9250
2.936964 0.9230 0.9230 0.9230 0.9230 0.9210
2.971000 0.9210 0.9210 0.9190 0.9190 0.9180
3.004964 0.9180 0.9180 0.9160 0.9160 0.9160
3.039000 0.9140 0.9140 0.9140 0.9130 0.9090
3.072964 0.9090 0.9080 0.9020 0.9010 0.8970
3.107000 0.8900 0.8870 0.8820 0.8770 0.8730
3.140964 0.8730 0.8700 0.8680 0.8680 0.8680
3.175000 0.8680 0.8680 0.8680 0.8670 0.8650
3.208964 0.8630 0.8620 0.8600 0.8580 0.8560
3.242000 0.8530 0.8460 0.8430 0.8410 0.8380
3.275964 0.8360 0.8220 0.8160 0.8050 0.7800
3.310000 0.7460 0.7170 0.7150 0.7150 0.7150
3.343964 0.7150 0.5910 0.5500 0.5310 0.4580
3.378000 0.3300 0.3100 0.3100 0.3160 0.3620
3.411964 0.3900 0.4820 0.5550 0.5920 0.5990
3.446000 0.5990 0.5970 0.5740 0.5720 0.5750
3.479964 0.6160 0.6300 0.6380 0.6490 0.6590
3.514000 0.6600 0.6590 0.6200 0.6140 0.6210
3.547964 0.7170 0.7850 0.8240 0.8410 0.8500
3.582000 0.8510 0.8530 0.8560 0.8600 0.8630
3.615964 0.8680 0.8730 0.8790 0.8790 0.8790
3.650000 0.8800 0.8820 0.8840 0.8840 0.8840
3.683964 0.8800 0.8790 0.8790 0.8800 0.8820
3.718000 0.8840 0.8840 0.8840 0.8840 0.8850
3.751964 0.8840 0.8820 0.8820 0.8820 0.8820
3.786000 0.8820 0.8800 0.8790 0.8770 0.8770
3.819964 0.8750 0.8750 0.8750 0.8770 0.8790
3.854000 0.8800 0.8800 0.8820 0.8840 0.8850
3.887964 0.8870 0.8870 0.8890 0.8890 0.8870
3.921000 0.8890 0.8890 0.8890 0.8890 0.8890
3.954964 0.8900 0.8900 0.8900 0.8890 0.8890
3.989000 0.8870 0.8870 0.8870 0.8850 0.8850
4.022964 0.8850 0.8850 0.8850 0.8850 0.8850
4.057000 0.8840 0.8820 0.8820 0.8820 0.8820
4.090964 0.8820 0.8820 0.8820 0.8800 0.8800
4.125000 0.8800 0.8790 0.8770 0.8750 0.8750
4.158964 0.8770 0.8790 0.8790 0.8790 0.8790
4.193000 0.8770 0.8750 0.8720 0.8700 0.8670
4.226964 0.8650 0.8670 0.8700 0.8730 0.8750
4.261000 0.8770 0.8790 0.8820 0.8850 0.8850
4.294964 0.8870 0.8870 0.8890 0.8890 0.8890
4.329000 0.8900 0.8900 0.8900 0.8900 0.8870
4.362964 0.8850 0.8840 0.8820 0.8800 0.8790
4.397000 0.8750 0.8750 0.8750 0.8730 0.8730
4.430964 0.8730 0.8750 0.8790 0.8800 0.8800
4.465000 0.8800 0.8800 0.8800 0.8790 0.8750
4.498964 0.8700 0.8700 0.8700 0.8700 0.8730
4.532000 0.8750 0.8770 0.8770 0.8770 0.8790
4.565964 0.8770 0.8770 0.8770 0.8770 0.8770
4.600000 0.8750 0.8720 0.8680 0.8670 0.8670
4.633964 0.8670 0.8680 0.8700 0.8720 0.8720
4.668000 0.8700 0.8670 0.8670 0.8670 0.8670
4.701964 0.8680 0.8680 0.8720 0.8720 0.8720
4.736000 0.8720 0.8730 0.8750 0.8790 0.8800
4.769964 0.8820 0.8820 0.8840 0.8820 0.8820
4.804000 0.8820 0.8820 0.8820 0.8820 0.8840
4.837964 0.8820 0.8820 0.8800 0.8800 0.8790
4.872000 0.8790 0.8790 0.8790 0.8790 0.8790
4.905964 0.8790 0.8790 0.8790 0.8790 0.8790
4.940000 0.8790 0.8790 0.8790 0.8790 0.8800
4.973964 0.8800 0.8800 0.8790 0.8790 0.8790
5.008000 0.8790 0.8790 0.8790 0.8790 0.8790
5.041964 0.8790 0.8790 0.8790 0.8790 0.8790
5.076000 0.8790 0.8800 0.8790 0.8770 0.8770
5.109964 0.8790 0.8790 0.8800 0.8820 0.8820
5.144000 0.8820 0.8820 0.8800 0.8790 0.8770
5.177964 0.8750 0.8750 0.8730 0.8720 0.8720
5.211000 0.8720 0.8730 0.8730 0.8730 0.8750
5.244964 0.8770 0.8770 0.8770 0.8770 0.8770
5.279000 0.8770 0.8750 0.8770 0.8770 0.8770
5.312964 0.8770 0.8770 0.8770 0.8770 0.8790
5.347000 0.8790 0.8800 0.8800 0.8790 0.8790
5.380964 0.8790 0.8790 0.8790 0.8790 0.8790
5.415000 0.8790 0.8790 0.8790 0.8790 0.8790
5.448964 0.8790 0.8790 0.8790 0.8790 0.8770
5.483000 0.8770 0.8750 0.8750 0.8750 0.8750
5.516964 0.8770 0.8770 0.8770 0.8770 0.8770
5.551000 0.8750 0.8750 0.8750 0.8730 0.8730
5.584964 0.8720 0.8720 0.8720 0.8700 0.8720
5.619000 0.8720 0.8730 0.8730 0.8730 0.8730
5.652964 0.8750 0.8730 0.8730 0.8730 0.8730
5.687000 0.8720 0.8720 0.8720 0.8720 0.8700
5.720964 0.8700 0.8700 0.8700 0.8700 0.8680
5.755000 0.8680 0.8680 0.8680 0.8670 0.8670
5.788964 0.8670 0.8670 0.8670 0.8670 0.8670
5.823000 0.8670 0.8670 0.8670 0.8670 0.8670
5.856964 0.8670 0.8670 0.8670 0.8670 0.8670
5.890000 0.8670 0.8650 0.8650 0.8650 0.8630
5.923964 0.8630 0.8630 0.8620 0.8600 0.8580
5.958000 0.8580 0.8560 0.8550 0.8550 0.8550
5.991964 0.8550 0.8560 0.8560 0.8560 0.8560
6.026000 0.8550 0.8550 0.8550 0.8550 0.8550
6.059964 0.8530 0.8530 0.8510 0.8510 0.8500
6.094000 0.8500 0.8480 0.8460 0.8430 0.8410
6.127964 0.8410 0.8390 0.8380 0.8340 0.8340
6.162000 0.8330 0.8330 0.8330 0.8330 0.8330
6.195964 0.8330 0.8330 0.8330 0.8330 0.8340
6.230000 0.8360 0.8360 0.8380 0.8380 0.8390
6.263964 0.8410 0.8410 0.8410 0.8410 0.8410
6.298000 0.8410 0.8440 0.8440 0.8440 0.8440
6.331964 0.8440 0.8440 0.8440 0.8440 0.8440
6.366000 0.8440 0.8440 0.8440 0.8440 0.8440
6.399964 0.8440 0.8440 0.8440 0.8440 0.8430
6.434000 0.8430 0.8410 0.8410 0.8390 0.8380
6.467964 0.8360 0.8360 0.8340 0.8330 0.8310
6.501000 0.8290 0.8290 0.8270 0.8260 0.8240
6.534964 0.8210 0.8210 0.8190 0.8170 0.8160
6.569000 0.8140 0.8100 0.8100 0.8100 0.8140
6.602964 0.8160 0.8160 0.8160 0.8170 0.8170
6.637000 0.8170 0.8170 0.8160 0.8140 0.8120
6.670964 0.8100 0.8090 0.8090 0.8020 0.7980
6.705000 0.7970 0.7950 0.7930 0.7900 0.7870
6.738964 0.7810 0.7750 0.7700 0.7610 0.7520
6.773000 0.7390 0.7240 0.6710 0.6690 0.6660
6.806964 0.6470 0.6180 0.5840 0.5480 0.5120
6.841000 0.4780 0.4510 0.4340 0.4250 0.4050
6.874964 0.3860 0.3670 0.3540 0.3390 0.3270
6.909000 0.3150 0.3110 0.3100 0.3110 0.3390
6.942964 0.3470 0.3470 0.3320 0.2840 0.2480
6.977000 0.2160 0.1950 0.1940 0.1970 0.2750
7.010964 0.3300 0.4240 0.4990 0.5600 0.6060
7.045000 0.6420 0.6710 0.6910 0.7080 0.7220
7.078964 0.7320 0.7420 0.7490 0.7520 0.7630
7.113000 0.7680 0.7700 0.7710 0.7730 0.7760
7.146964 0.7810 0.7850 0.7870 0.7900 0.7930
7.180000 0.7930 0.7930 0.7930 0.7930 0.7930
7.213964 0.7930 0.7920 0.7900 0.7870 0.7780
7.248000 0.7750 0.7630 0.7520 0.7370 0.7240
7.281964 0.7180 0.7130 0.7120 0.7100 0.7080
7.316000 0.6960 0.6860 0.6690 0.6540 0.6500
7.349964 0.6540 0.6590 0.6690 0.6760 0.6830
7.384000 0.6880 0.6890 0.6980 0.7060 0.7150
7.417964 0.7200 0.7300 0.7420 0.7470 0.7490
7.452000 0.7470 0.7420 0.7320 0.7290 0.7290
7.485964 0.7290 0.7350 0.7420 0.7470 0.7610
7.520000 0.7660 0.7660 0.7640 0.7640 0.7640
7.553964 0.7590 0.7580 0.7560 0.7510 0.7440
7.588000 0.7390 0.7250 0.7150 0.7030 0.6890
7.621964 0.6720 0.6540 0.6330 0.6090 0.5800
7.656000 0.5600 0.5380 0.5260 0.5260 0.5290
7.689964 0.5410 0.5460 0.5460 0.5460 0.5310
7.724000 0.5020 0.4820 0.4530 0.4270 0.3980
7.757964 0.3730 0.3400 0.3390 0.3440 0.3780
7.791000 0.4200 0.4610 0.5000 0.5360 0.5500
7.824964 0.5650 0.5770 0.5790 0.5820 0.5820
7.859000 0.5770 0.5500 0.5220 0.4830 0.4370
7.892964 0.3960 0.3570 0.3230 0.2940 0.2890
7.927000 0.2890 0.2940 0.2980 0.3080 0.3100
7.960964 0.3100 0.3060 0.2980 0.2910 0.2810
7.995000 0.2690 0.2570 0.2450 0.2330 0.2280
8.028964 0.2090 0.1940 0.1700 0.1370 0.1090
8.063000 0.0780 0.0590 0.0440 0.0390 0.0390
8.096964 0.0470 0.0640 0.0850 0.1150 0.1550
8.131000 0.2060 0.2690 0.3180 0.3730 0.4080
8.164964 0.4410 0.4630 0.4800 0.4900 0.4950
8.199000 0.5020 0.5040 0.5050 0.5050 0.5020
8.232964 0.4900 0.4750 0.4490 0.4290 0.3950
8.267000 0.3610 0.3250 0.2890 0.2570 0.2260
8.300964 0.1970 0.1720 0.1510 0.1360 0.1260
8.335000 0.1200 0.1150 0.1100 0.1070 0.1020
8.368964 0.0980 0.0980 0.0970 0.0950 0.0950
8.403000 0.0930 0.0880 0.0810 0.0740 0.0740
8.436964 0.0800 0.1000 0.1260 0.1730 0.2140
8.470000 0.2640 0.3200 0.3670 0.4070 0.4420
8.503964 0.4730 0.5000 0.5240 0.5500 0.5740
8.538000 0.5870 0.5970 0.5970 0.5970 0.5890
8.571964 0.5620 0.5330 0.4680 0.4420 0.4190
8.606000 0.3880 0.3540 0.3200 0.3200 0.3370
8.639964 0.4130 0.4630 0.4950 0.5240 0.5480
8.674000 0.5570 0.5600 0.5620 0.5630 0.5650
8.707964 0.5620 0.5580 0.5460 0.5280 0.5000
8.742000 0.4750 0.4480 0.4460 0.4460 0.4560
8.775964 0.5460 0.5890 0.5990 0.6230 0.6470
8.810000 0.6670 0.6760 0.6890 0.6910 0.6910
8.843964 0.6880 0.6840 0.6780 0.6740 0.6690
8.878000 0.6640 0.6500 0.6380 0.6260 0.6130
8.911964 0.6110 0.6130 0.6300 0.6490 0.6720
8.946000 0.6910 0.7030 0.7130 0.7180 0.7220
8.979964 0.7240 0.7270 0.7270 0.7270 0.7270
9.014000 0.7290 0.7290 0.7300 0.7300 0.7320
9.047964 0.7340 0.7350 0.7370 0.7390 0.7390
9.081000 0.7390 0.7410 0.7410 0.7410 0.7410
9.114964 0.7410 0.7410 0.7410 0.7410 0.7390
9.149000 0.7390 0.7350 0.7300 0.7300 0.7290
9.182964 0.7240 0.7200 0.7170 0.7130 0.7120
9.217000 0.7120 0.7130 0.7200 0.7250 0.7320
9.250964 0.7370 0.7390 0.7390 0.7390 0.7410
9.285000 0.7410 0.7420 0.7420 0.7440 0.7440
9.318964 0.7470 0.7470 0.7490 0.7560 0.7590
9.353000 0.7610 0.7610 0.7610 0.7610 0.7610
9.386964 0.7610 0.7610 0.7590 0.7590 0.7590
9.421000 0.7590 0.7580 0.7580 0.7520 0.7490
9.454964 0.7490 0.7490 0.7520 0.7560 0.7590
9.489000 0.7610 0.7610 0.7660 0.7680 0.7700
9.522964 0.7730 0.7760 0.7780 0.7780 0.7800
9.557000 0.7800 0.7800 0.7800 0.7800 0.7800
9.590964 0.7800 0.7800 0.7800 0.7780 0.7710
9.625000 0.7700 0.7680 0.7660 0.7660 0.7640
9.658964 0.7640 0.7630 0.7630 0.7640 0.7640
9.693000 0.7660 0.7660 0.7640 0.7640 0.7640
9.726964 0.7630 0.7630 0.7610 0.7610 0.7590
9.760000 0.7590 0.7580 0.7560 0.7540 0.7490
9.793964 0.7390 0.7340 0.7320 0.7300 0.7300
9.828000 0.7240 0.7170 0.7170 0.7180 0.7180
9.861964 0.7240 0.7250 0.7290 0.7340 0.7350
9.896000 0.7350 0.7350 0.7350 0.7370 0.7350
9.929964 0.7320 0.7320 0.7290 0.7250 0.7220
9.964000 0.7220 0.7220 0.7180 0.7240 0.7250
9.997964 0.7290 0.7320 0.7340 0.7350 0.7390
10.032000 0.7410 0.7420 0.7470 0.7510 0.7580
10.065964 0.7610 0.7640 0.7660 0.7630 0.7630
10.100000 0.7630 0.7640 0.7660 0.7680 0.7680
10.133964 0.7700 0.7700 0.7680 0.7630 0.7610
10.168000 0.7590 0.7580 0.7520 0.7490 0.7440
10.201964 0.7370 0.7320 0.7320 0.7340 0.7420
10.236000 0.7460 0.7490 0.7540 0.7560 0.7580
10.269964 0.7590 0.7590 0.7610 0.7610 0.7590
10.304000 0.7590 0.7560 0.7560 0.7520 0.7490
10.337964 0.7420 0.7370 0.7300 0.7290 0.7290
10.371000 0.7250 0.7250 0.7220 0.7200 0.7170
10.404964 0.7150 0.7100 0.7060 0.7000 0.6950
10.439000 0.6880 0.6810 0.6710 0.6620 0.6520
10.472964 0.6380 0.6260 0.6140 0.6030 0.5910
10.507000 0.5800 0.5720 0.5650 0.5580 0.5570
10.540964 0.5570 0.5570 0.5580 0.5630 0.5700
10.575000 0.5800 0.5910 0.6040 0.6180 0.6330
10.608964 0.6470 0.6620 0.6760 0.6890 0.7000
10.643000 0.7060 0.7130 0.7180 0.7250 0.7290
10.676964 0.7340 0.7390 0.7440 0.7470 0.7520
10.711000 0.7580 0.7640 0.7700 0.7730 0.7750
10.744964 0.7760 0.7750 0.7760 0.7780 0.7800
10.779000 0.7800 0.7810 0.7810 0.7830 0.7850
10.812964 0.7850 0.7870 0.7870 0.7880 0.7880
10.847000 0.7900 0.7900 0.7920 0.7920 0.7930
10.880964 0.7930 0.7930 0.7950 0.7950 0.7970
10.915000 0.7980 0.7980 0.8000 0.8000 0.8020
10.948964 0.8040 0.8050 0.8070 0.8090 0.8090
10.983000 0.8090 0.8090 0.8090 0.8090 0.8090
11.016964 0.8090 0.8090 0.8090 0.8070 0.8070
11.050000 0.8050 0.8050 0.8050 0.8040 0.8040
11.083964 0.8020 0.8020 0.8000 0.8000 0.8000
11.118000 0.8000 0.7980 0.7980 0.7980 0.7970
11.151964 0.7950 0.7950 0.7920 0.7870 0.7810
11.186000 0.7800 0.7760 0.7700 0.7630 0.7580
11.219964 0.7540 0.7510 0.7470 0.7460 0.7410
11.254000 0.7350 0.7320 0.7290 0.7270 0.7270
11.287964 0.7290 0.7340 0.7350 0.7370 0.7390
11.322000 0.7390 0.7390 0.7410 0.7410 0.7410
11.355964 0.7420 0.7440 0.7460 0.7460 0.7470
11.390000 0.7470 0.7490 0.7510 0.7520 0.7520
11.423964 0.7520 0.7520 0.7540 0.7540 0.7540
11.458000 0.7540 0.7540 0.7540 0.7560 0.7580
11.491964 0.7580 0.7590 0.7590 0.7590 0.7610
11.526000 0.7610 0.7610 0.7630 0.7630 0.7630
11.559964 0.7630 0.7630 0.7630 0.7630 0.7590
11.594000 0.7560 0.7520 0.7510 0.7510 0.7490
11.627964 0.7470 0.7460 0.7460 0.7440 0.7390
11.661000 0.7370 0.7370 0.7370 0.7370 0.7390
11.694964 0.7390 0.7390 0.7390 0.7390 0.7390
11.729000 0.7390 0.7410 0.7460 0.7520 0.7610
11.762964 0.7630 0.7660 0.7680 0.7680 0.7680
11.797000 0.7700 0.7700 0.7700 0.7710 0.7710
11.830964 0.7730 0.7730 0.7730 0.7730 0.7710
11.865000 0.7700 0.7700 0.7680 0.7660 0.7640
11.898964 0.7630 0.7610 0.7610 0.7590 0.7590
11.933000 0.7580 0.7560 0.7540 0.7520 0.7490
11.966964 0.7440 0.7390 0.7340 0.7300 0.7250
12.001000 0.7200 0.7150 0.7100 0.7050 0.6980
12.034964 0.6930 0.6860 0.6790 0.6720 0.6620
12.069000 0.6550 0.6540 0.6540 0.6540 0.6550
12.102964 0.6570 0.6600 0.6620 0.6660 0.6670
12.137000 0.6710 0.6740 0.6790 0.6840 0.6880
12.170964 0.6890 0.6910 0.6930 0.6950 0.6950
12.205000 0.6960 0.6960 0.6980 0.7010 0.7050
12.238964 0.7060 0.7080 0.7100 0.7120 0.7130
12.273000 0.7170 0.7180 0.7200 0.7240 0.7250
12.306964 0.7250 0.7250 0.7250 0.7250 0.7250
12.340000 0.7250 0.7250 0.7250 0.7250 0.7250
12.373964 0.7250 0.7250 0.7240 0.7220 0.7200
12.408000 0.7180 0.7180 0.7170 0.7170 0.7150
12.441964 0.7150 0.7130 0.7120 0.7120 0.7100
12.476000 0.7100 0.7080 0.7080 0.7060 0.7030
12.509964 0.7030 0.7010 0.7010 0.7000 0.6980
12.544000 0.6960 0.6950 0.6930 0.6930 0.6930
12.577964 0.6910 0.6910 0.6910 0.6910 0.6890
12.612000 0.6890 0.6890 0.6890 0.6910 0.6910
12.645964 0.6910 0.6930 0.6930 0.6950 0.6950
12.680000 0.6960 0.6960 0.6960 0.6980 0.6980
12.713964 0.6980 0.6980 0.6980 0.6980 0.6980
12.748000 0.6980 0.6980 0.6960 0.6960 0.6950
12.781964 0.6930 0.6910 0.6890 0.6890 0.6860
12.816000 0.6830 0.6780 0.6740 0.6710 0.6640
12.849964 0.6590 0.6540 0.6490 0.6420 0.6370
12.884000 0.6320 0.6250 0.6200 0.6130 0.6080
12.917964 0.6030 0.5990 0.5990 0.5940 0.5920
12.952000 0.5920 0.5920 0.5940 0.5960 0.5990
12.985964 0.6060 0.6130 0.6160 0.6180 0.6230
13.019000 0.6280 0.6320 0.6370 0.6400 0.6450
13.052964 0.6490 0.6500 0.6500 0.6520 0.6570
13.087000 0.6620 0.6620 0.6660 0.6710 0.6740
13.120964 0.6740 0.6760 0.6760 0.6780 0.6780
13.155000 0.6790 0.6810 0.6810 0.6810 0.6810
13.188964 0.6810 0.6810 0.6810 0.6810 0.6810
13.223000 0.6780 0.6740 0.6710 0.6660 0.6640
13.256964 0.6570 0.6540 0.6450 0.6430 0.6350
13.291000 0.6260 0.6230 0.6140 0.5940 0.5840
13.324964 0.5720 0.5650 0.5550 0.5430 0.5310
13.359000 0.5190 0.5090 0.4990 0.4880 0.4780
13.392964 0.4680 0.4580 0.4540 0.4420 0.4410
13.427000 0.4410 0.4440 0.4460 0.4480 0.4490
13.460964 0.4530 0.4580 0.4650 0.4710 0.4800
13.495000 0.4850 0.4920 0.5000 0.5070 0.5120
13.528964 0.5190 0.5240 0.5290 0.5340 0.5380
13.563000 0.5430 0.5480 0.5530 0.5550 0.5580
13.596964 0.5630 0.5700 0.5720 0.5720 0.5700
13.630000 0.5670 0.5650 0.5650 0.5620 0.5600
13.663964 0.5580 0.5530 0.5480 0.5410 0.5340
13.698000 0.5280 0.5210 0.5120 0.5050 0.4970
13.731964 0.4900 0.4820 0.4750 0.4660 0.4590
13.766000 0.4510 0.4440 0.4370 0.4310 0.4270
13.799964 0.4170 0.4130 0.4080 0.4080 0.4080
13.834000 0.4080 0.4080 0.4100 0.4120 0.4150
13.867964 0.4190 0.4250 0.4340 0.4480 0.4560
13.902000 0.4630 0.4660 0.4710 0.4750 0.4820
13.935964 0.4880 0.4970 0.5040 0.5070 0.5120
13.970000 0.5160 0.5220 0.5330 0.5430 0.5580
14.003964 0.5680 0.5720 0.5740 0.5770 0.5820
14.038000 0.5870 0.5920 0.6010 0.6080 0.6160
14.071964 0.6230 0.6300 0.6370 0.6420 0.6490
14.106000 0.6570 0.6670 0.6710 0.6720 0.6790
14.139964 0.6830 0.6860 0.6910 0.6950 0.7000
14.174000 0.7030 0.7080 0.7150 0.7220 0.7220
14.207964 0.7240 0.7250 0.7270 0.7270 0.7290
14.242000 0.7290 0.7290 0.7290 0.7300 0.7370
14.275964 0.7410 0.7420 0.7440 0.7460 0.7470
14.309000 0.7490 0.7490 0.7510 0.7510 0.7520
14.342964 0.7540 0.7560 0.7580 0.7590 0.7610
14.377000 0.7610 0.7630 0.7630 0.7640 0.7660
14.410964 0.7660 0.7660 0.7680 0.7680 0.7710
14.445000 0.7710 0.7710 0.7710 0.7710 0.7710
14.478964 0.7710 0.7710 0.7730 0.7730 0.7730
14.513000 0.7750 0.7750 0.7750 0.7750 0.7750
14.546964 0.7750 0.7750 0.7760 0.7760 0.7760
14.581000 0.7760 0.7760 0.7760 0.7760 0.7760
14.614964 0.7760 0.7760 0.7760 0.7760 0.7760
14.649000 0.7750 0.7750 0.7750 0.7750 0.7750
14.682964 0.7750 0.7730 0.7730 0.7730 0.7730
14.717000 0.7750 0.7750 0.7750 0.7750 0.7750
14.750964 0.7750 0.7750 0.7750 0.7750 0.7750
14.785000 0.7750 0.7750 0.7750 0.7750 0.7750
14.818964 0.7750 0.7750 0.7750 0.7750 0.7750
14.853000 0.7750 0.7750 0.7750 0.7750 0.7750
14.886964 0.7750 0.7750 0.7730 0.7730 0.7730
14.920000 0.7730 0.7710 0.7710 0.7700 0.7680
14.953964 0.7680 0.7660 0.7640 0.7630 0.7610
14.988000 0.7590 0.7580 0.7540 0.7520 0.7490
15.021964 0.7470 0.7470 0.7470 0.7490 0.7510
15.056000 0.7520 0.7540 0.7560 0.7580 0.7580
15.089964 0.7590 0.7590 0.7630 0.7630 0.7640
15.124000 0.7640 0.7660 0.7660 0.7660 0.7660
15.157964 0.7660 0.7660 0.7660 0.7630 0.7630
15.192000 0.7630 0.7630 0.7610 0.7610 0.7610
15.225964 0.7610 0.7590 0.7580 0.7580 0.7560
15.260000 0.7560 0.7540 0.7540 0.7520 0.7520
15.293964 0.7520 0.7520 0.7520 0.7510 0.7510
15.328000 0.7510 0.7490 0.7490 0.7470 0.7470
15.361964 0.7460 0.7460 0.7460 0.7460 0.7460
15.396000 0.7460 0.7460 0.7460 0.7460 0.7460
15.429964 0.7460 0.7460 0.7460 0.7460 0.7440
15.464000 0.7440 0.7420 0.7420 0.7420 0.7410
15.497964 0.7410 0.7390 0.7390 0.7390 0.7370
15.532000 0.7370 0.7370 0.7370 0.7370 0.7370
15.565964 0.7370 0.7370 0.7370 0.7350 0.7350
15.599000 0.7350 0.7350 0.7350 0.7340 0.7340
15.632964 0.7340 0.7340 0.7320 0.7320 0.7320
15.667000 0.7320 0.7300 0.7300 0.7300 0.7290
15.700964 0.7290 0.7270 0.7250 0.7250 0.7240
15.735000 0.7220 0.7220 0.7220 0.7220 0.7220
15.768964 0.7220 0.7220 0.7220 0.7220 0.7220
15.803000 0.7220 0.7220 0.7220 0.7220 0.7220
15.836964 0.7220 0.7220 0.7200 0.7200 0.7180
15.871000 0.7180 0.7170 0.7150 0.7150 0.7150
15.904964 0.7150 0.7150 0.7130 0.7130 0.7130
15.939000 0.7130 0.7130 0.7120 0.7120 0.7120
15.972964 0.7100 0.7100
##END=
