##TITLE=BROMOCHLOROMETHANE
$$ E.K. (W.L.)
##JCAMP-DX=4.24
##DATA TYPE=INFRARED SPECTRUM
##CLASS=COBLENTZ
##ORIGIN=WYANDOTTE CHEMICALS CORP., WYANDOTTE, MICHIGAN, USA
##OWNER=COBLENTZ SOCIETY
Collection (C) 2018 copyright by the U.S. Secretary of Commerce
on behalf of the United States of America. All rights reserved.
##DATE=Not specified, most likely prior to 1970
##NAMES=bromo(chloro)methane
##CAS REGISTRY NO=74-97-5
##MOLFORM=C H2 Br Cl
##SOURCE REFERENCE=COBLENTZ NO. 1305
##$NIST SOURCE=COBLENTZ
##$NIST IMAGE=cob1305
##SPECTROMETER/DATA SYSTEM=Not specified, most likely a prism, grating, or hybrid spectrometer.
##STATE=LIQUID
##PATH LENGTH=0.005 CM
##SAMPLING PROCEDURE=TRANSMISSION
##RESOLUTION=4
##DATA PROCESSING=DIGITIZED BY NIST FROM HARD COPY
##XUNITS=MICROMETERS
##YUNITS=TRANSMITTANCE
##XFACTOR=1.000000
##YFACTOR=1
##DELTAX=000.006813
##FIRSTX=2.048
##LASTX=15.9927
##FIRSTY=0.994
##MAXX=15.9927
##MINX=2.048
##MAXY=1.003
##MINY=0.023
##NPOINTS=2048
##XYDATA=(X++(Y..Y))
2.048000 0.9940 0.9960 0.9960 0.9960 0.9980
2.082080 0.9980 0.9980 1.0000 1.0000 1.0000
2.116000 1.0000 1.0000 1.0000 1.0000 1.0000
2.150080 1.0000 0.9930 0.9910 0.9770 0.9700
2.184000 0.9600 0.9480 0.9140 0.8730 0.8730
2.218080 0.9010 0.9330 0.9550 0.9670 0.9890
2.252000 1.0000 1.0000 0.9960 0.9940 0.9890
2.286080 0.9890 0.9860 0.9840 0.9770 0.9620
2.320000 0.9470 0.9240 0.8990 0.8820 0.8820
2.354080 0.8900 0.9230 0.9380 0.9550 0.9640
2.388000 0.9720 0.9820 0.9930 0.9960 1.0000
2.422080 1.0030 1.0030 1.0030 1.0010 1.0010
2.456000 1.0010 1.0010 1.0010 1.0010 1.0010
2.490080 1.0000 0.9960 0.9940 0.9910 0.9860
2.525000 0.9810 0.9720 0.9600 0.9530 0.9530
2.559080 0.9530 0.9590 0.9700 0.9760 0.9790
2.593000 0.9840 0.9860 0.9880 0.9890 0.9890
2.627080 0.9890 0.9910 0.9930 0.9930 0.9930
2.661000 0.9910 0.9890 0.9880 0.9860 0.9860
2.695080 0.9860 0.9860 0.9860 0.9860 0.9860
2.729000 0.9840 0.9820 0.9810 0.9810 0.9810
2.763080 0.9820 0.9840 0.9840 0.9840 0.9840
2.797000 0.9820 0.9810 0.9790 0.9790 0.9790
2.831080 0.9790 0.9790 0.9790 0.9790 0.9790
2.865000 0.9740 0.9720 0.9740 0.9720 0.9720
2.899080 0.9700 0.9700 0.9690 0.9690 0.9640
2.933000 0.9620 0.9600 0.9600 0.9570 0.9570
2.967080 0.9550 0.9530 0.9530 0.9530 0.9520
3.001000 0.9520 0.9520 0.9500 0.9500 0.9480
3.035080 0.9480 0.9470 0.9470 0.9450 0.9430
3.070000 0.9430 0.9410 0.9400 0.9380 0.9380
3.104080 0.9380 0.9360 0.9360 0.9350 0.9350
3.138000 0.9310 0.9280 0.9230 0.9190 0.9120
3.172080 0.9110 0.9090 0.9040 0.9020 0.8970
3.206000 0.8850 0.8700 0.8650 0.8510 0.8340
3.240080 0.8100 0.7860 0.7620 0.7250 0.6650
3.274000 0.5110 0.4360 0.3610 0.3290 0.3270
3.308080 0.3310 0.6210 0.6800 0.7710 0.7910
3.342000 0.7910 0.7790 0.7260 0.6790 0.6740
3.376080 0.6740 0.6960 0.7300 0.7490 0.7590
3.410000 0.7640 0.7640 0.7640 0.7620 0.7610
3.444080 0.7610 0.7610 0.7660 0.8150 0.8360
3.478000 0.8490 0.8530 0.8580 0.8680 0.8700
3.512080 0.8700 0.8700 0.8610 0.8490 0.8480
3.546000 0.8490 0.8610 0.8750 0.8850 0.8990
3.580080 0.9110 0.9140 0.9160 0.9190 0.9210
3.615000 0.9230 0.9230 0.9230 0.9260 0.9280
3.649080 0.9300 0.9330 0.9350 0.9380 0.9380
3.683000 0.9400 0.9400 0.9410 0.9400 0.9400
3.717080 0.9400 0.9400 0.9400 0.9410 0.9430
3.751000 0.9430 0.9430 0.9430 0.9430 0.9430
3.785080 0.9430 0.9410 0.9400 0.9380 0.9360
3.819000 0.9240 0.9180 0.9040 0.9020 0.9040
3.853080 0.9140 0.9330 0.9450 0.9520 0.9530
3.887000 0.9590 0.9590 0.9600 0.9600 0.9620
3.921080 0.9620 0.9640 0.9650 0.9650 0.9650
3.955000 0.9650 0.9640 0.9620 0.9600 0.9600
3.989080 0.9590 0.9590 0.9590 0.9590 0.9590
4.023000 0.9570 0.9590 0.9590 0.9600 0.9600
4.057080 0.9600 0.9570 0.9570 0.9550 0.9550
4.091000 0.9530 0.9530 0.9520 0.9500 0.9470
4.125080 0.9400 0.9310 0.9240 0.9180 0.9070
4.160000 0.8970 0.8950 0.8950 0.8970 0.9110
4.194080 0.9230 0.9380 0.9480 0.9500 0.9520
4.228000 0.9550 0.9590 0.9590 0.9590 0.9590
4.262080 0.9590 0.9590 0.9600 0.9620 0.9640
4.296000 0.9690 0.9690 0.9700 0.9700 0.9690
4.330080 0.9620 0.9550 0.9480 0.9470 0.9470
4.364000 0.9470 0.9470 0.9480 0.9480 0.9520
4.398080 0.9550 0.9590 0.9590 0.9520 0.9520
4.432000 0.9520 0.9550 0.9570 0.9590 0.9590
4.466080 0.9590 0.9570 0.9530 0.9520 0.9480
4.500000 0.9410 0.9330 0.9180 0.9020 0.8720
4.534080 0.8360 0.7710 0.7280 0.7280 0.7320
4.568000 0.7930 0.8370 0.8800 0.8970 0.9190
4.602080 0.9410 0.9520 0.9600 0.9650 0.9700
4.636000 0.9700 0.9720 0.9720 0.9770 0.9790
4.670080 0.9810 0.9820 0.9820 0.9820 0.9820
4.705000 0.9820 0.9820 0.9820 0.9840 0.9840
4.739080 0.9840 0.9840 0.9840 0.9840 0.9840
4.773000 0.9820 0.9810 0.9790 0.9790 0.9810
4.807080 0.9820 0.9880 0.9890 0.9880 0.9880
4.841000 0.9880 0.9880 0.9880 0.9880 0.9880
4.875080 0.9860 0.9860 0.9860 0.9860 0.9880
4.909000 0.9880 0.9890 0.9890 0.9890 0.9890
4.943080 0.9890 0.9910 0.9910 0.9930 0.9910
4.977000 0.9910 0.9890 0.9880 0.9880 0.9910
5.011080 0.9890 0.9880 0.9880 0.9880 0.9820
5.045000 0.9820 0.9810 0.9790 0.9790 0.9790
5.079080 0.9810 0.9810 0.9840 0.9840 0.9820
5.113000 0.9810 0.9790 0.9790 0.9790 0.9810
5.147080 0.9820 0.9860 0.9880 0.9880 0.9880
5.182000 0.9880 0.9890 0.9880 0.9880 0.9880
5.216080 0.9880 0.9880 0.9880 0.9880 0.9880
5.250000 0.9880 0.9880 0.9890 0.9890 0.9910
5.284080 0.9910 0.9910 0.9910 0.9910 0.9910
5.318000 0.9890 0.9890 0.9890 0.9890 0.9910
5.352080 0.9910 0.9910 0.9890 0.9890 0.9890
5.386000 0.9890 0.9890 0.9890 0.9890 0.9890
5.420080 0.9880 0.9860 0.9860 0.9880 0.9880
5.454000 0.9880 0.9880 0.9880 0.9880 0.9880
5.488080 0.9890 0.9890 0.9890 0.9890 0.9890
5.522000 0.9880 0.9880 0.9880 0.9880 0.9880
5.556080 0.9880 0.9880 0.9880 0.9880 0.9890
5.590000 0.9890 0.9890 0.9910 0.9910 0.9910
5.624080 0.9890 0.9880 0.9880 0.9860 0.9860
5.658000 0.9860 0.9860 0.9890 0.9890 0.9890
5.692080 0.9860 0.9840 0.9820 0.9810 0.9770
5.727000 0.9720 0.9720 0.9700 0.9690 0.9640
5.761080 0.9600 0.9600 0.9600 0.9570 0.9570
5.795000 0.9470 0.9360 0.9260 0.9140 0.9090
5.829080 0.8940 0.8240 0.7620 0.7500 0.7490
5.863000 0.7500 0.8030 0.8290 0.8510 0.8720
5.897080 0.8920 0.9090 0.9230 0.9260 0.9300
5.931000 0.9300 0.9300 0.9300 0.9300 0.9300
5.965080 0.9300 0.9300 0.9260 0.9260 0.9240
5.999000 0.9230 0.9210 0.9190 0.9190 0.9190
6.033080 0.9190 0.9190 0.9190 0.9190 0.9160
6.067000 0.9110 0.9090 0.9090 0.9090 0.9090
6.101080 0.9090 0.9090 0.9110 0.9110 0.9110
6.135000 0.9120 0.9160 0.9190 0.9190 0.9190
6.169080 0.9190 0.9160 0.9110 0.9090 0.9020
6.203000 0.9020 0.9020 0.9020 0.9020 0.9090
6.237080 0.9140 0.9190 0.9230 0.9260 0.9300
6.272000 0.9310 0.9330 0.9330 0.9360 0.9360
6.306080 0.9410 0.9410 0.9380 0.9380 0.9380
6.340000 0.9380 0.9380 0.9400 0.9410 0.9430
6.374080 0.9430 0.9430 0.9430 0.9430 0.9410
6.408000 0.9380 0.9380 0.9380 0.9410 0.9410
6.442080 0.9410 0.9410 0.9410 0.9410 0.9410
6.476000 0.9410 0.9400 0.9360 0.9330 0.9330
6.510080 0.9330 0.9380 0.9410 0.9430 0.9430
6.544000 0.9410 0.9400 0.9400 0.9360 0.9330
6.578080 0.9300 0.9300 0.9300 0.9300 0.9300
6.612000 0.9300 0.9280 0.9280 0.9240 0.9240
6.646080 0.9260 0.9260 0.9260 0.9240 0.9240
6.680000 0.9230 0.9140 0.9140 0.9120 0.9060
6.714080 0.9040 0.9010 0.9010 0.8970 0.8900
6.748000 0.8890 0.8800 0.8680 0.8490 0.8290
6.782080 0.8080 0.7840 0.7640 0.7440 0.7280
6.817000 0.7130 0.7040 0.6990 0.6920 0.6820
6.851080 0.6600 0.6310 0.6090 0.6050 0.6090
6.885000 0.6170 0.6260 0.6390 0.6580 0.6700
6.919080 0.6770 0.6870 0.6970 0.7060 0.7130
6.953000 0.7200 0.7260 0.7300 0.7320 0.7330
6.987080 0.7350 0.7400 0.7450 0.7500 0.7520
7.021000 0.7500 0.7500 0.7500 0.7440 0.7320
7.055080 0.7110 0.6920 0.6670 0.6430 0.6220
7.089000 0.6040 0.5800 0.5730 0.5760 0.6020
7.123080 0.6270 0.6510 0.6740 0.6940 0.7110
7.157000 0.7280 0.7440 0.7570 0.7690 0.7810
7.191080 0.7910 0.7980 0.8050 0.8120 0.8150
7.225000 0.8170 0.8200 0.8240 0.8240 0.8250
7.259080 0.8270 0.8290 0.8290 0.8290 0.8320
7.293000 0.8320 0.8270 0.8240 0.8200 0.8170
7.327080 0.8130 0.8070 0.8030 0.8030 0.8030
7.362000 0.8070 0.8100 0.8130 0.8170 0.8310
7.396080 0.8360 0.8370 0.8430 0.8490 0.8540
7.430000 0.8600 0.8610 0.8610 0.8600 0.8560
7.464080 0.8540 0.8530 0.8430 0.8320 0.8320
7.498000 0.8320 0.8340 0.8480 0.8540 0.8600
7.532080 0.8600 0.8610 0.8680 0.8700 0.8720
7.566000 0.8730 0.8750 0.8750 0.8780 0.8780
7.600080 0.8800 0.8830 0.8850 0.8870 0.8890
7.634000 0.8900 0.8900 0.8890 0.8890 0.8890
7.668080 0.8890 0.8870 0.8830 0.8780 0.8730
7.702000 0.8700 0.8660 0.8650 0.8650 0.8650
7.736080 0.8630 0.8610 0.8600 0.8580 0.8560
7.770000 0.8540 0.8510 0.8480 0.8440 0.8410
7.804080 0.8360 0.8290 0.8190 0.8120 0.8100
7.838000 0.8050 0.8030 0.8000 0.7910 0.7780
7.872080 0.7620 0.7520 0.7490 0.7420 0.7280
7.907000 0.7110 0.6990 0.6870 0.6770 0.6670
7.941080 0.6460 0.6170 0.5920 0.5710 0.5590
7.975000 0.5420 0.5230 0.5060 0.4980 0.4890
8.009080 0.4720 0.4520 0.4300 0.4060 0.3780
8.043000 0.3490 0.3130 0.2740 0.2300 0.1790
8.077080 0.1210 0.0880 0.0630 0.0420 0.0290
8.111000 0.0230 0.0230 0.0230 0.0230 0.0230
8.145080 0.0230 0.0230 0.0230 0.0230 0.0230
8.179000 0.0230 0.0270 0.0300 0.0400 0.0590
8.213080 0.0830 0.1140 0.1480 0.1860 0.2230
8.247000 0.2640 0.3030 0.3410 0.3770 0.4020
8.281080 0.4140 0.4520 0.4740 0.4960 0.5390
8.315000 0.5510 0.5660 0.5760 0.5810 0.5900
8.349080 0.5950 0.5950 0.5900 0.5800 0.5730
8.383000 0.5690 0.5630 0.5690 0.5970 0.6040
8.417080 0.6240 0.6510 0.6750 0.6860 0.6970
8.452000 0.7040 0.7130 0.7200 0.7230 0.7250
8.486080 0.7280 0.7400 0.7470 0.7540 0.7590
8.520000 0.7610 0.7620 0.7640 0.7690 0.7710
8.554080 0.7740 0.7790 0.7790 0.7810 0.7830
8.588000 0.7860 0.7900 0.7900 0.7900 0.7900
8.622080 0.7910 0.7930 0.7950 0.7980 0.8000
8.656000 0.8000 0.8000 0.8000 0.8020 0.8020
8.690080 0.8020 0.8020 0.7930 0.7900 0.7840
8.724000 0.7810 0.7790 0.7760 0.7760 0.7760
8.758080 0.7740 0.7730 0.7690 0.7690 0.7690
8.792000 0.7660 0.7620 0.7590 0.7540 0.7500
8.826080 0.7490 0.7490 0.7470 0.7470 0.7470
8.860000 0.7470 0.7470 0.7470 0.7490 0.7490
8.894080 0.7500 0.7500 0.7500 0.7500 0.7470
8.928000 0.7470 0.7470 0.7500 0.7540 0.7590
8.962080 0.7620 0.7640 0.7660 0.7670 0.7710
8.997000 0.7730 0.7740 0.7740 0.7730 0.7730
9.031080 0.7710 0.7730 0.7740 0.7760 0.7760
9.065000 0.7780 0.7780 0.7810 0.7810 0.7830
9.099080 0.7840 0.7880 0.7900 0.7900 0.7910
9.133000 0.7910 0.7910 0.7900 0.7900 0.7900
9.167080 0.7900 0.7900 0.7900 0.7910 0.7910
9.201000 0.7930 0.7960 0.8050 0.8120 0.8150
9.235080 0.8170 0.8170 0.8190 0.8200 0.8220
9.269000 0.8240 0.8250 0.8250 0.8270 0.8270
9.303080 0.8270 0.8310 0.8310 0.8340 0.8370
9.337000 0.8410 0.8410 0.8430 0.8430 0.8430
9.371080 0.8440 0.8440 0.8480 0.8490 0.8490
9.405000 0.8510 0.8490 0.8510 0.8510 0.8510
9.439080 0.8540 0.8540 0.8530 0.8540 0.8560
9.473000 0.8580 0.8600 0.8600 0.8600 0.8600
9.507080 0.8600 0.8600 0.8580 0.8580 0.8560
9.542000 0.8540 0.8530 0.8530 0.8510 0.8510
9.576080 0.8510 0.8490 0.8490 0.8480 0.8460
9.610000 0.8460 0.8460 0.8510 0.8510 0.8490
9.644080 0.8490 0.8490 0.8510 0.8510 0.8510
9.678000 0.8510 0.8490 0.8490 0.8490 0.8490
9.712080 0.8440 0.8430 0.8430 0.8430 0.8430
9.746000 0.8430 0.8430 0.8430 0.8430 0.8430
9.780080 0.8430 0.8430 0.8430 0.8430 0.8440
9.814000 0.8440 0.8440 0.8460 0.8490 0.8540
9.848080 0.8560 0.8560 0.8530 0.8490 0.8460
9.882000 0.8460 0.8460 0.8490 0.8510 0.8530
9.916080 0.8580 0.8650 0.8680 0.8700 0.8700
9.950000 0.8720 0.8730 0.8750 0.8770 0.8780
9.984080 0.8800 0.8800 0.8820 0.8830 0.8870
10.018000 0.8870 0.8830 0.8800 0.8800 0.8720
10.052080 0.8650 0.8610 0.8600 0.8490 0.8340
10.087000 0.8170 0.8020 0.8020 0.8000 0.8020
10.121080 0.8020 0.8130 0.8220 0.8320 0.8440
10.155000 0.8530 0.8610 0.8650 0.8680 0.8720
10.189080 0.8750 0.8780 0.8830 0.8890 0.8970
10.223000 0.8990 0.8990 0.9010 0.9010 0.9010
10.257080 0.9010 0.9010 0.9010 0.9010 0.9010
10.291000 0.9010 0.9010 0.9010 0.9010 0.9010
10.325080 0.9010 0.9010 0.9010 0.9010 0.9010
10.359000 0.9010 0.8990 0.8990 0.8990 0.8990
10.393080 0.8970 0.8990 0.8990 0.8970 0.8950
10.427000 0.8950 0.8940 0.8940 0.8940 0.8940
10.461080 0.8940 0.8940 0.8940 0.8940 0.8940
10.495000 0.8940 0.8940 0.8920 0.8920 0.8900
10.529080 0.8900 0.8920 0.8940 0.8920 0.8920
10.564000 0.8920 0.8900 0.8900 0.8900 0.8900
10.598080 0.8920 0.8920 0.8940 0.8950 0.8950
10.632000 0.8970 0.8970 0.8970 0.8970 0.8970
10.666080 0.8970 0.8970 0.8970 0.8970 0.8950
10.700000 0.8970 0.8970 0.8950 0.8950 0.8940
10.734080 0.8940 0.8940 0.8920 0.8940 0.8920
10.768000 0.8920 0.8920 0.8900 0.8900 0.8920
10.802080 0.8920 0.8920 0.8920 0.8920 0.8920
10.836000 0.8940 0.8940 0.8920 0.8920 0.8900
10.870080 0.8890 0.8890 0.8890 0.8890 0.8890
10.904000 0.8890 0.8890 0.8870 0.8870 0.8870
10.938080 0.8850 0.8850 0.8850 0.8850 0.8830
10.972000 0.8830 0.8830 0.8820 0.8830 0.8830
11.006080 0.8820 0.8820 0.8820 0.8820 0.8820
11.040000 0.8820 0.8820 0.8820 0.8800 0.8800
11.074080 0.8800 0.8780 0.8780 0.8780 0.8770
11.109000 0.8770 0.8780 0.8780 0.8780 0.8780
11.143080 0.8780 0.8780 0.8780 0.8780 0.8780
11.177000 0.8750 0.8750 0.8730 0.8730 0.8720
11.211080 0.8700 0.8700 0.8680 0.8630 0.8610
11.245000 0.8600 0.8540 0.8510 0.8460 0.8370
11.279080 0.8270 0.8120 0.8000 0.7980 0.7980
11.313000 0.8000 0.8050 0.8120 0.8190 0.8270
11.347080 0.8320 0.8370 0.8390 0.8430 0.8490
11.381000 0.8510 0.8530 0.8530 0.8540 0.8540
11.415080 0.8530 0.8490 0.8460 0.8430 0.8390
11.449000 0.8390 0.8340 0.8310 0.8290 0.8290
11.483080 0.8250 0.8250 0.8240 0.8240 0.8170
11.517000 0.8100 0.8030 0.7980 0.7910 0.7840
11.551080 0.7790 0.7730 0.7690 0.7620 0.7570
11.585000 0.7540 0.7450 0.7380 0.7320 0.7260
11.619080 0.7180 0.7130 0.7010 0.6940 0.6720
11.654000 0.6560 0.6380 0.6170 0.5950 0.5690
11.688080 0.5420 0.5130 0.4980 0.4820 0.4470
11.722000 0.3970 0.3700 0.3310 0.2910 0.2690
11.756080 0.2350 0.2090 0.1890 0.1800 0.1800
11.790000 0.1840 0.1970 0.2150 0.2370 0.2620
11.824080 0.2910 0.3220 0.3540 0.3870 0.4190
11.858000 0.4520 0.4810 0.5300 0.5560 0.5680
11.892080 0.5880 0.6100 0.6340 0.6530 0.6700
11.926000 0.6820 0.6960 0.7080 0.7210 0.7320
11.960080 0.7420 0.7450 0.7500 0.7570 0.7660
11.994000 0.7760 0.7880 0.7960 0.8030 0.8030
12.028080 0.8050 0.8080 0.8100 0.8120 0.8150
12.062000 0.8220 0.8290 0.8290 0.8310 0.8320
12.096080 0.8390 0.8430 0.8440 0.8460 0.8480
12.130000 0.8490 0.8490 0.8510 0.8510 0.8530
12.164080 0.8540 0.8540 0.8560 0.8560 0.8600
12.199000 0.8600 0.8630 0.8680 0.8700 0.8700
12.233080 0.8700 0.8700 0.8700 0.8700 0.8700
12.267000 0.8700 0.8700 0.8700 0.8700 0.8700
12.301080 0.8680 0.8680 0.8650 0.8610 0.8540
12.335000 0.8480 0.8390 0.8310 0.8190 0.8050
12.369080 0.8020 0.8000 0.8000 0.8030 0.8120
12.403000 0.8220 0.8270 0.8320 0.8370 0.8390
12.437080 0.8410 0.8430 0.8440 0.8460 0.8490
12.471000 0.8510 0.8510 0.8490 0.8510 0.8490
12.505080 0.8490 0.8480 0.8480 0.8510 0.8510
12.539000 0.8490 0.8490 0.8490 0.8460 0.8440
12.573080 0.8410 0.8390 0.8360 0.8340 0.8290
12.607000 0.8240 0.8200 0.8190 0.8150 0.8120
12.641080 0.8100 0.8080 0.8030 0.8030 0.8020
12.675000 0.7960 0.7900 0.7830 0.7790 0.7740
12.709080 0.7710 0.7710 0.7690 0.7670 0.7670
12.744000 0.7640 0.7610 0.7610 0.7590 0.7590
12.778080 0.7550 0.7520 0.7490 0.7440 0.7420
12.812000 0.7400 0.7380 0.7330 0.7320 0.7280
12.846080 0.7210 0.7200 0.7180 0.7130 0.7080
12.880000 0.7030 0.6990 0.6960 0.6890 0.6860
12.914080 0.6800 0.6720 0.6700 0.6680 0.6630
12.948000 0.6510 0.6430 0.6380 0.6330 0.6290
12.982080 0.6260 0.6160 0.6040 0.5970 0.5870
13.016000 0.5800 0.5710 0.5630 0.5540 0.5470
13.050080 0.5400 0.5270 0.5170 0.5030 0.5010
13.084000 0.5000 0.4930 0.4820 0.4760 0.4650
13.118080 0.4600 0.4520 0.4450 0.4310 0.4230
13.152000 0.4190 0.4110 0.3970 0.3870 0.3770
13.186080 0.3720 0.3650 0.3510 0.3390 0.3270
13.220000 0.3170 0.3050 0.3000 0.2910 0.2790
13.254080 0.2670 0.2590 0.2490 0.2380 0.2210
13.289000 0.2130 0.2030 0.1920 0.1790 0.1700
13.323080 0.1600 0.1510 0.1460 0.1310 0.1170
13.357000 0.1090 0.1040 0.1000 0.0970 0.0920
13.391080 0.0870 0.0760 0.0690 0.0640 0.0630
13.425000 0.0590 0.0560 0.0540 0.0520 0.0520
13.459080 0.0520 0.0520 0.0520 0.0510 0.0490
13.493000 0.0490 0.0490 0.0490 0.0490 0.0490
13.527080 0.0490 0.0490 0.0490 0.0490 0.0490
13.561000 0.0470 0.0470 0.0470 0.0470 0.0470
13.595080 0.0470 0.0470 0.0470 0.0470 0.0470
13.629000 0.0470 0.0470 0.0470 0.0490 0.0490
13.663080 0.0490 0.0490 0.0510 0.0510 0.0510
13.697000 0.0520 0.0520 0.0510 0.0510 0.0520
13.731080 0.0520 0.0520 0.0520 0.0520 0.0520
13.765000 0.0520 0.0540 0.0540 0.0540 0.0540
13.799080 0.0540 0.0540 0.0540 0.0540 0.0540
13.834000 0.0560 0.0560 0.0560 0.0580 0.0590
13.868080 0.0590 0.0590 0.0610 0.0610 0.0630
13.902000 0.0630 0.0630 0.0630 0.0630 0.0640
13.936080 0.0630 0.0660 0.0660 0.0660 0.0660
13.970000 0.0660 0.0680 0.0660 0.0660 0.0660
14.004080 0.0680 0.0680 0.0710 0.0730 0.0750
14.038000 0.0750 0.0760 0.0760 0.0780 0.0780
14.072080 0.0800 0.0810 0.0850 0.0900 0.0950
14.106000 0.1000 0.1070 0.1140 0.1170 0.1190
14.140080 0.1210 0.1310 0.1380 0.1480 0.1500
14.174000 0.1550 0.1630 0.1740 0.1860 0.1960
14.208080 0.2040 0.2110 0.2180 0.2280 0.2300
14.242000 0.2370 0.2540 0.2620 0.2740 0.2790
14.276080 0.2860 0.2960 0.3050 0.3150 0.3240
14.310000 0.3360 0.3460 0.3560 0.3650 0.3730
14.344080 0.3780 0.3870 0.3970 0.4040 0.4140
14.379000 0.4230 0.4300 0.4330 0.4520 0.4550
14.413080 0.4620 0.4670 0.4720 0.4770 0.4790
14.447000 0.4910 0.4960 0.5110 0.5170 0.5180
14.481080 0.5230 0.5290 0.5340 0.5370 0.5390
14.515000 0.5420 0.5460 0.5490 0.5510 0.5520
14.549080 0.5520 0.5540 0.5540 0.5560 0.5590
14.583000 0.5630 0.5630 0.5630 0.5630 0.5630
14.617080 0.5630 0.5630 0.5630 0.5630 0.5630
14.651000 0.5610 0.5610 0.5610 0.5610 0.5660
14.685080 0.5680 0.5680 0.5690 0.5730 0.5760
14.719000 0.5810 0.5830 0.5850 0.5870 0.5970
14.753080 0.6020 0.6070 0.6120 0.6220 0.6290
14.787000 0.6330 0.6390 0.6450 0.6500 0.6560
14.821080 0.6620 0.6670 0.6700 0.6750 0.6790
14.855000 0.6820 0.6860 0.6890 0.6960 0.6990
14.889080 0.7030 0.7080 0.7110 0.7130 0.7180
14.924000 0.7210 0.7230 0.7230 0.7250 0.7250
14.958080 0.7250 0.7260 0.7280 0.7300 0.7320
14.992000 0.7330 0.7370 0.7380 0.7400 0.7380
15.026080 0.7380 0.7380 0.7380 0.7380 0.7400
15.060000 0.7490 0.7500 0.7550 0.7550 0.7590
15.094080 0.7590 0.7610 0.7640 0.7660 0.7670
15.128000 0.7670 0.7670 0.7640 0.7590 0.7590
15.162080 0.7610 0.7620 0.7620 0.7620 0.7620
15.196000 0.7640 0.7640 0.7660 0.7640 0.7640
15.230080 0.7640 0.7640 0.7640 0.7610 0.7610
15.264000 0.7590 0.7590 0.7570 0.7570 0.7550
15.298080 0.7550 0.7550 0.7570 0.7570 0.7590
15.332000 0.7590 0.7570 0.7570 0.7570 0.7570
15.366080 0.7570 0.7590 0.7590 0.7610 0.7610
15.400000 0.7620 0.7620 0.7640 0.7660 0.7670
15.434080 0.7660 0.7660 0.7620 0.7610 0.7590
15.469000 0.7590 0.7610 0.7590 0.7590 0.7550
15.503080 0.7550 0.7540 0.7540 0.7540 0.7540
15.537000 0.7540 0.7540 0.7540 0.7540 0.7540
15.571080 0.7520 0.7520 0.7520 0.7520 0.7520
15.605000 0.7500 0.7490 0.7440 0.7440 0.7400
15.639080 0.7400 0.7380 0.7380 0.7380 0.7380
15.673000 0.7380 0.7380 0.7350 0.7350 0.7350
15.707080 0.7350 0.7350 0.7350 0.7330 0.7320
15.741000 0.7320 0.7320 0.7320 0.7320 0.7320
15.775080 0.7330 0.7330 0.7330 0.7350 0.7350
15.809000 0.7330 0.7330 0.7330 0.7330 0.7330
15.843080 0.7350 0.7350 0.7350 0.7370 0.7370
15.877000 0.7370 0.7370 0.7370 0.7370 0.7370
15.911080 0.7370 0.7370 0.7350 0.7350 0.7350
15.945000 0.7330 0.7320 0.7260 0.7260 0.7260
15.979080 0.7250 0.7250 0.7250
##END=
