##TITLE=2-CHLOROPROPANE
##JCAMP-DX=4.24
##DATA TYPE=INFRARED SPECTRUM
##CLASS=COBLENTZ
##ORIGIN=WYANDOTTE CHEMICALS CORP., WYANDOTTE, MICHIGAN, USA
##OWNER=COBLENTZ SOCIETY
Collection (C) 2018 copyright by the U.S. Secretary of Commerce
on behalf of the United States of America. All rights reserved.
##DATE=Not specified, most likely prior to 1970
##CAS REGISTRY NO=75-29-6
##MOLFORM=C3 H7 Cl
##BP=34-36 C
##SOURCE REFERENCE=COBLENTZ NO. 122
##$NIST SOURCE=COBLENTZ
##$NIST IMAGE=cob122
##SPECTROMETER/DATA SYSTEM=Not specified, most likely a prism, grating, or hybrid spectrometer.
##STATE=GAS
##SAMPLING PROCEDURE=TRANSMISSION
##RESOLUTION=4
##DATA PROCESSING=DIGITIZED BY NIST FROM HARD COPY
##XUNITS=MICROMETERS
##YUNITS=TRANSMITTANCE
##XFACTOR=1.000000
##YFACTOR=1
##DELTAX=000.006652
##FIRSTX=2.075
##LASTX=15.978
##FIRSTY=1.005
##MAXX=15.978
##MINX=2.075
##MAXY=1.013
##MINY=0.045
##NPOINTS=2091
##XYDATA=(X++(Y..Y))
2.075000 1.0050 1.0060 1.0060 1.0060 1.0080
2.108275 1.0060 1.0030 1.0010 1.0000 1.0080
2.142000 1.0050 1.0030 1.0010 1.0000 0.9980
2.175275 0.9930 0.9890 0.9880 0.9860 0.9860
2.208000 0.9830 0.9810 0.9790 0.9780 0.9760
2.241275 0.9730 0.9730 0.9730 0.9740 0.9760
2.275000 0.9790 0.9810 0.9790 0.9790 0.9790
2.308275 0.9780 0.9730 0.9710 0.9730 0.9760
2.341000 0.9790 0.9760 0.9790 0.9790 0.9790
2.374275 0.9780 0.9790 0.9790 0.9810 0.9790
2.408000 0.9810 0.9840 0.9860 0.9880 0.9880
2.441275 0.9890 0.9890 0.9910 0.9930 0.9960
2.475000 0.9980 1.0000 1.0000 1.0000 1.0030
2.508275 1.0000 0.9960 0.9980 1.0050 1.0050
2.541000 1.0060 1.0080 1.0050 1.0030 1.0010
2.574275 1.0000 1.0000 0.9980 0.9960 0.9960
2.608000 0.9940 0.9960 0.9940 0.9940 0.9980
2.641275 1.0080 1.0130 1.0130 1.0060 0.9980
2.674000 0.9980 0.9980 1.0080 1.0060 1.0060
2.707275 1.0060 1.0060 1.0050 1.0050 1.0030
2.741000 1.0030 1.0010 1.0010 1.0010 1.0010
2.774275 1.0000 0.9980 1.0000 0.9980 0.9960
2.807000 0.9940 0.9940 0.9910 0.9930 0.9940
2.840275 0.9980 1.0050 1.0030 1.0010 0.9980
2.874000 0.9960 0.9910 0.9890 0.9890 1.0000
2.907275 0.9980 0.9940 0.9910 0.9910 0.9880
2.940000 0.9880 0.9860 0.9860 0.9860 0.9830
2.973275 0.9830 0.9840 0.9860 0.9860 0.9910
3.007000 0.9910 0.9930 0.9930 0.9910 0.9840
3.040275 0.9790 0.9690 0.9640 0.9690 0.9680
3.073000 0.9640 0.9590 0.9540 0.9480 0.9390
3.106275 0.9310 0.9230 0.9110 0.9090 0.9110
3.140000 0.9130 0.9210 0.9310 0.9380 0.9440
3.173275 0.9480 0.9530 0.9560 0.9580 0.9590
3.206000 0.9610 0.9680 0.9690 0.9690 0.9660
3.239275 0.9640 0.9610 0.9610 0.9590 0.9590
3.273000 0.9590 0.9530 0.9360 0.9030 0.8090
3.306275 0.7400 0.6720 0.4540 0.3960 0.3360
3.339000 0.1500 0.0980 0.0450 0.0450 0.0610
3.372275 0.0780 0.0950 0.1400 0.1500 0.1530
3.406000 0.1570 0.1830 0.2040 0.2170 0.2820
3.439275 0.3470 0.3870 0.4190 0.4090 0.4130
3.472000 0.4230 0.4440 0.4780 0.5260 0.5860
3.505275 0.6370 0.7670 0.8140 0.8460 0.8660
3.539000 0.8760 0.8810 0.8820 0.8840 0.8910
3.572275 0.9030 0.9140 0.9330 0.9360 0.9490
3.605000 0.9510 0.9490 0.9430 0.9340 0.9280
3.638275 0.9190 0.9160 0.9030 0.9010 0.8990
3.672000 0.9010 0.9090 0.9180 0.9310 0.9390
3.705275 0.9480 0.9510 0.9560 0.9580 0.9630
3.738000 0.9680 0.9690 0.9680 0.9580 0.9530
3.771275 0.9480 0.9390 0.9360 0.9360 0.9410
3.805000 0.9460 0.9490 0.9540 0.9560 0.9590
3.838275 0.9590 0.9610 0.9630 0.9610 0.9540
3.871000 0.9530 0.9530 0.9530 0.9530 0.9530
3.904275 0.9580 0.9630 0.9640 0.9680 0.9680
3.938000 0.9640 0.9640 0.9630 0.9610 0.9590
3.971275 0.9560 0.9540 0.9540 0.9510 0.9460
4.004000 0.9410 0.9290 0.9230 0.9230 0.9310
4.037275 0.9390 0.9440 0.9480 0.9490 0.9510
4.071000 0.9530 0.9560 0.9610 0.9640 0.9640
4.104275 0.9640 0.9630 0.9630 0.9530 0.9480
4.137000 0.9530 0.9530 0.9610 0.9630 0.9630
4.170275 0.9630 0.9630 0.9530 0.9540 0.9640
4.204000 0.9640 0.9630 0.9610 0.9560 0.9530
4.237275 0.9510 0.9530 0.9560 0.9580 0.9610
4.271000 0.9640 0.9680 0.9730 0.9780 0.9830
4.304275 0.9840 0.9860 0.9860 0.9880 0.9910
4.337000 0.9930 0.9940 0.9940 0.9940 0.9930
4.370275 0.9880 0.9830 0.9790 0.9730 0.9680
4.404000 0.9610 0.9580 0.9530 0.9610 0.9590
4.437275 0.9560 0.9510 0.9480 0.9430 0.9390
4.470000 0.9380 0.9330 0.9310 0.9290 0.9310
4.503275 0.9310 0.9330 0.9340 0.9380 0.9410
4.537000 0.9480 0.9540 0.9580 0.9630 0.9660
4.570275 0.9660 0.9680 0.9680 0.9690 0.9710
4.603000 0.9740 0.9760 0.9760 0.9740 0.9730
4.636275 0.9680 0.9630 0.9630 0.9640 0.9680
4.670000 0.9710 0.9730 0.9740 0.9760 0.9760
4.703275 0.9710 0.9710 0.9780 0.9780 0.9760
4.736000 0.9730 0.9730 0.9690 0.9690 0.9680
4.769275 0.9680 0.9680 0.9680 0.9690 0.9760
4.803000 0.9760 0.9740 0.9730 0.9710 0.9690
4.836275 0.9660 0.9690 0.9680 0.9680 0.9660
4.869000 0.9630 0.9610 0.9610 0.9630 0.9640
4.902275 0.9680 0.9690 0.9690 0.9660 0.9660
4.936000 0.9660 0.9660 0.9660 0.9660 0.9660
4.969275 0.9640 0.9640 0.9630 0.9630 0.9610
5.002000 0.9560 0.9530 0.9530 0.9590 0.9590
5.035275 0.9610 0.9590 0.9530 0.9580 0.9580
5.069000 0.9580 0.9610 0.9660 0.9680 0.9690
5.102275 0.9660 0.9590 0.9580 0.9580 0.9610
5.135000 0.9680 0.9710 0.9710 0.9640 0.9580
5.168275 0.9590 0.9610 0.9640 0.9690 0.9740
5.202000 0.9740 0.9690 0.9680 0.9660 0.9660
5.235275 0.9660 0.9640 0.9640 0.9640 0.9680
5.268000 0.9660 0.9660 0.9660 0.9660 0.9640
5.301275 0.9630 0.9610 0.9590 0.9580 0.9580
5.335000 0.9580 0.9560 0.9560 0.9560 0.9580
5.368275 0.9580 0.9590 0.9630 0.9660 0.9640
5.401000 0.9630 0.9630 0.9630 0.9610 0.9580
5.434275 0.9580 0.9580 0.9580 0.9640 0.9640
5.468000 0.9610 0.9580 0.9530 0.9630 0.9590
5.501275 0.9590 0.9590 0.9580 0.9560 0.9540
5.534000 0.9510 0.9510 0.9510 0.9510 0.9510
5.567275 0.9510 0.9510 0.9530 0.9590 0.9610
5.601000 0.9610 0.9580 0.9560 0.9530 0.9510
5.634275 0.9490 0.9490 0.9480 0.9460 0.9460
5.667000 0.9460 0.9430 0.9410 0.9390 0.9410
5.700275 0.9460 0.9460 0.9440 0.9440 0.9440
5.734000 0.9410 0.9390 0.9380 0.9340 0.9340
5.767275 0.9310 0.9260 0.9260 0.9280 0.9280
5.800000 0.9310 0.9310 0.9340 0.9360 0.9340
5.833275 0.9280 0.9230 0.9230 0.9310 0.9340
5.867000 0.9340 0.9360 0.9360 0.9360 0.9330
5.900275 0.9260 0.9230 0.9230 0.9230 0.9230
5.933000 0.9240 0.9240 0.9240 0.9240 0.9260
5.966275 0.9330 0.9390 0.9340 0.9330 0.9290
6.000000 0.9280 0.9290 0.9310 0.9330 0.9360
6.033275 0.9310 0.9340 0.9380 0.9410 0.9440
6.067000 0.9430 0.9410 0.9430 0.9460 0.9460
6.100275 0.9480 0.9480 0.9410 0.9430 0.9480
6.133000 0.9530 0.9530 0.9530 0.9580 0.9580
6.166275 0.9530 0.9510 0.9480 0.9460 0.9440
6.200000 0.9410 0.9390 0.9380 0.9380 0.9380
6.233275 0.9390 0.9390 0.9430 0.9410 0.9430
6.266000 0.9440 0.9460 0.9480 0.9430 0.9430
6.299275 0.9460 0.9510 0.9530 0.9540 0.9560
6.333000 0.9590 0.9530 0.9560 0.9590 0.9610
6.366275 0.9630 0.9630 0.9590 0.9580 0.9560
6.399000 0.9580 0.9580 0.9580 0.9530 0.9530
6.432275 0.9610 0.9610 0.9610 0.9610 0.9610
6.466000 0.9590 0.9560 0.9530 0.9560 0.9530
6.499275 0.9540 0.9510 0.9490 0.9490 0.9480
6.532000 0.9440 0.9430 0.9380 0.9330 0.9290
6.565275 0.9240 0.9180 0.9140 0.9130 0.9090
6.599000 0.9060 0.8990 0.8890 0.8790 0.8640
6.632275 0.8490 0.8290 0.8070 0.7820 0.7550
6.665000 0.7320 0.7100 0.7000 0.6880 0.6530
6.698275 0.6070 0.5730 0.5510 0.5400 0.5350
6.732000 0.5310 0.5260 0.5200 0.5060 0.4810
6.765275 0.4130 0.4010 0.3870 0.3870 0.4080
6.798000 0.4080 0.4040 0.4010 0.3990 0.3970
6.831275 0.3910 0.3610 0.2920 0.2620 0.2620
6.865000 0.2800 0.3540 0.3910 0.4780 0.4890
6.898275 0.4880 0.4740 0.4580 0.4540 0.4530
6.931000 0.4610 0.4880 0.5050 0.5400 0.5730
6.964275 0.5950 0.6320 0.6650 0.6800 0.6920
6.998000 0.6980 0.7670 0.7950 0.8070 0.8220
7.031275 0.8360 0.8410 0.8390 0.8370 0.8240
7.064000 0.7920 0.7750 0.7450 0.7050 0.6830
7.097275 0.6620 0.6170 0.5750 0.5360 0.5060
7.131000 0.4890 0.4680 0.4210 0.4010 0.3810
7.164275 0.3410 0.3020 0.2720 0.2420 0.2120
7.197000 0.1820 0.1820 0.1830 0.1850 0.1900
7.230275 0.2090 0.2270 0.2470 0.2990 0.3570
7.264000 0.3570 0.3360 0.3190 0.3170 0.3190
7.297275 0.3370 0.3640 0.3970 0.4590 0.4930
7.330000 0.5330 0.5780 0.6150 0.6480 0.6780
7.363275 0.7300 0.7540 0.7770 0.8010 0.8220
7.397000 0.8460 0.8570 0.8690 0.8760 0.8790
7.430275 0.8840 0.8820 0.8790 0.8760 0.8740
7.463000 0.8720 0.8660 0.8590 0.8610 0.8720
7.496275 0.8820 0.8890 0.8890 0.8810 0.8540
7.530000 0.8340 0.8140 0.8120 0.8120 0.8120
7.563275 0.8110 0.8090 0.8090 0.8160 0.8220
7.596000 0.8290 0.8320 0.8470 0.8560 0.8620
7.629275 0.8640 0.8670 0.8690 0.8710 0.8740
7.663000 0.8770 0.8790 0.8790 0.8810 0.8770
7.696275 0.8720 0.8640 0.8560 0.8420 0.8270
7.729000 0.8040 0.7720 0.7320 0.7070 0.6800
7.762275 0.6130 0.5460 0.4530 0.4030 0.3520
7.796000 0.2550 0.1980 0.1400 0.1220 0.1030
7.829275 0.1000 0.1030 0.1180 0.1320 0.1420
7.863000 0.1420 0.1270 0.1000 0.0880 0.0750
7.896275 0.0710 0.0760 0.0900 0.0950 0.0980
7.929000 0.1000 0.1000 0.1020 0.1050 0.1150
7.962275 0.1280 0.1470 0.1580 0.2000 0.2270
7.996000 0.2550 0.2850 0.3170 0.3510 0.3840
8.029275 0.4530 0.4880 0.5230 0.5560 0.5900
8.062000 0.6230 0.6530 0.6830 0.7370 0.7600
8.095275 0.7800 0.7990 0.8120 0.8220 0.8310
8.129000 0.8390 0.8460 0.8540 0.8620 0.8720
8.162275 0.8760 0.8770 0.8790 0.8810 0.8810
8.195000 0.8820 0.8840 0.8840 0.8890 0.8940
8.228275 0.8940 0.8970 0.8990 0.9090 0.9040
8.262000 0.9030 0.9040 0.9060 0.9090 0.9130
8.295275 0.9130 0.9110 0.9090 0.9060 0.9040
8.328000 0.9030 0.9030 0.9010 0.8970 0.8940
8.361275 0.8860 0.8760 0.8610 0.8440 0.8260
8.395000 0.8040 0.7800 0.7550 0.7270 0.7120
8.428275 0.6970 0.6650 0.6330 0.6000 0.5650
8.461000 0.5310 0.4960 0.4590 0.4360 0.4060
8.494275 0.3920 0.3790 0.3640 0.3420 0.3210
8.528000 0.3010 0.2840 0.2820 0.2900 0.3040
8.561275 0.3140 0.3170 0.3110 0.2990 0.2870
8.594000 0.2840 0.2870 0.2990 0.3140 0.3190
8.627275 0.3220 0.3220 0.3210 0.3140 0.3110
8.661000 0.3110 0.3170 0.3360 0.3520 0.3710
8.694275 0.3920 0.4410 0.4660 0.4880 0.5080
8.727000 0.5250 0.5460 0.5600 0.5830 0.5980
8.760275 0.6100 0.6170 0.6220 0.6270 0.6350
8.794000 0.6470 0.6630 0.6780 0.6920 0.7150
8.827275 0.7220 0.7240 0.7220 0.7120 0.7050
8.860000 0.7040 0.7020 0.7020 0.7000 0.6970
8.893275 0.6950 0.6970 0.7120 0.7170 0.7290
8.927000 0.7400 0.7550 0.7620 0.7690 0.7800
8.960275 0.7890 0.7920 0.7990 0.8070 0.8210
8.993000 0.8340 0.8470 0.8610 0.8660 0.8720
9.026275 0.8770 0.8810 0.8810 0.8840 0.8870
9.060000 0.8910 0.8920 0.8940 0.8970 0.8990
9.093275 0.8990 0.8990 0.8990 0.8960 0.8940
9.126000 0.8910 0.8840 0.8740 0.8610 0.8420
9.159275 0.8190 0.7870 0.7500 0.7140 0.7000
9.193000 0.6870 0.6130 0.5360 0.4880 0.4480
9.226275 0.4210 0.3940 0.3460 0.2970 0.2750
9.259000 0.2540 0.2440 0.2370 0.2370 0.2400
9.292275 0.2570 0.2720 0.3020 0.3270 0.3560
9.326000 0.3820 0.3940 0.3940 0.3770 0.3120
9.359275 0.2370 0.2220 0.2240 0.2620 0.3170
9.392000 0.3520 0.3620 0.3540 0.3440 0.3390
9.425275 0.3320 0.3210 0.3120 0.3090 0.3090
9.459000 0.3120 0.3290 0.3460 0.3620 0.3860
9.492275 0.4490 0.4830 0.5300 0.5650 0.5980
9.525000 0.6280 0.6570 0.6830 0.7320 0.7540
9.558275 0.7740 0.7920 0.8090 0.8240 0.8390
9.592000 0.8510 0.8620 0.8720 0.8810 0.8870
9.625275 0.8920 0.8970 0.9010 0.9030 0.9040
9.659000 0.9040 0.9030 0.9060 0.9060 0.9110
9.692275 0.9140 0.9190 0.9180 0.9210 0.9190
9.725000 0.9210 0.9240 0.9230 0.9190 0.9180
9.758275 0.9140 0.9180 0.9240 0.9280 0.9290
9.792000 0.9290 0.9240 0.9240 0.9240 0.9240
9.825275 0.9240 0.9260 0.9260 0.9280 0.9280
9.858000 0.9290 0.9310 0.9310 0.9330 0.9340
9.891275 0.9360 0.9390 0.9410 0.9390 0.9360
9.925000 0.9340 0.9380 0.9410 0.9410 0.9390
9.958275 0.9340 0.9380 0.9430 0.9480 0.9480
9.991000 0.9390 0.9390 0.9390 0.9390 0.9390
10.024275 0.9390 0.9390 0.9390 0.9390 0.9390
10.058000 0.9390 0.9390 0.9390 0.9390 0.9390
10.091275 0.9390 0.9410 0.9410 0.9440 0.9460
10.124000 0.9440 0.9430 0.9430 0.9430 0.9430
10.157275 0.9430 0.9430 0.9430 0.9430 0.9430
10.191000 0.9410 0.9390 0.9380 0.9380 0.9380
10.224275 0.9380 0.9380 0.9380 0.9380 0.9410
10.257000 0.9390 0.9390 0.9390 0.9380 0.9390
10.290275 0.9390 0.9380 0.9330 0.9240 0.9240
10.324000 0.9330 0.9330 0.9290 0.9280 0.9280
10.357275 0.9280 0.9260 0.9240 0.9240 0.9230
10.390000 0.9210 0.9210 0.9210 0.9210 0.9260
10.423275 0.9260 0.9190 0.9190 0.9240 0.9240
10.457000 0.9210 0.9210 0.9190 0.9180 0.9160
10.490275 0.9130 0.9090 0.9060 0.9030 0.9010
10.523000 0.8990 0.8990 0.8970 0.8960 0.8920
10.556275 0.8920 0.8890 0.8910 0.8890 0.8840
10.590000 0.8790 0.8740 0.8720 0.8720 0.8710
10.623275 0.8670 0.8640 0.8690 0.8670 0.8620
10.656000 0.8590 0.8590 0.8610 0.8620 0.8670
10.689275 0.8720 0.8740 0.8740 0.8710 0.8620
10.723000 0.8620 0.8660 0.8670 0.8710 0.8720
10.756275 0.8760 0.8810 0.8810 0.8790 0.8740
10.789000 0.8710 0.8660 0.8610 0.8610 0.8640
10.822275 0.8670 0.8690 0.8670 0.8620 0.8620
10.856000 0.8660 0.8710 0.8670 0.8710 0.8710
10.889275 0.8720 0.8740 0.8770 0.8790 0.8790
10.922000 0.8790 0.8790 0.8770 0.8720 0.8690
10.955275 0.8620 0.8560 0.8540 0.8470 0.8290
10.989000 0.8170 0.8070 0.7970 0.7820 0.7620
11.022275 0.7290 0.7070 0.7000 0.6920 0.6530
11.055000 0.6320 0.6120 0.5850 0.5630 0.5410
11.088275 0.5230 0.5000 0.4780 0.4560 0.4410
11.122000 0.4260 0.4180 0.4010 0.3990 0.3960
11.155275 0.3890 0.3820 0.3790 0.3810 0.3890
11.188000 0.3960 0.4280 0.4380 0.4480 0.4560
11.221275 0.4690 0.4690 0.4610 0.4360 0.4030
11.255000 0.3870 0.3720 0.3570 0.3270 0.3120
11.288275 0.3120 0.3220 0.3420 0.3560 0.3690
11.322000 0.3870 0.4110 0.4180 0.4240 0.4290
11.355275 0.4340 0.4330 0.4310 0.4260 0.4260
11.388000 0.4310 0.4340 0.4390 0.4460 0.4540
11.421275 0.4640 0.4790 0.4930 0.5080 0.5180
11.455000 0.5350 0.5500 0.5680 0.5850 0.6020
11.488275 0.6200 0.6370 0.6520 0.6670 0.6900
11.521000 0.7200 0.7370 0.7520 0.7650 0.7790
11.554275 0.7900 0.8010 0.8120 0.8210 0.8290
11.588000 0.8370 0.8440 0.8520 0.8590 0.8670
11.621275 0.8760 0.8820 0.8890 0.8960 0.9010
11.654000 0.9060 0.9080 0.9130 0.9160 0.9180
11.687275 0.9190 0.9180 0.9190 0.9240 0.9260
11.721000 0.9260 0.9240 0.9210 0.9210 0.9230
11.754275 0.9280 0.9290 0.9290 0.9310 0.9330
11.787000 0.9340 0.9290 0.9310 0.9310 0.9340
11.820275 0.9310 0.9340 0.9340 0.9380 0.9360
11.854000 0.9380 0.9390 0.9390 0.9390 0.9390
11.887275 0.9390 0.9390 0.9390 0.9380 0.9380
11.920000 0.9380 0.9390 0.9410 0.9460 0.9460
11.953275 0.9410 0.9410 0.9410 0.9410 0.9440
11.987000 0.9510 0.9510 0.9510 0.9510 0.9510
12.020275 0.9510 0.9510 0.9510 0.9480 0.9480
12.053000 0.9490 0.9490 0.9510 0.9510 0.9530
12.086275 0.9540 0.9560 0.9560 0.9540 0.9510
12.120000 0.9490 0.9510 0.9510 0.9510 0.9510
12.153275 0.9540 0.9530 0.9530 0.9530 0.9530
12.186000 0.9490 0.9490 0.9510 0.9530 0.9540
12.219275 0.9540 0.9560 0.9560 0.9560 0.9560
12.253000 0.9530 0.9530 0.9490 0.9510 0.9530
12.286275 0.9540 0.9540 0.9580 0.9580 0.9560
12.319000 0.9560 0.9560 0.9540 0.9530 0.9530
12.352275 0.9530 0.9530 0.9540 0.9560 0.9560
12.386000 0.9560 0.9560 0.9540 0.9540 0.9530
12.419275 0.9510 0.9440 0.9430 0.9440 0.9460
12.452000 0.9460 0.9440 0.9440 0.9480 0.9510
12.485275 0.9510 0.9510 0.9490 0.9490 0.9490
12.519000 0.9490 0.9460 0.9460 0.9430 0.9460
12.552275 0.9440 0.9430 0.9390 0.9390 0.9410
12.585000 0.9430 0.9440 0.9480 0.9490 0.9490
12.618275 0.9510 0.9480 0.9390 0.9390 0.9440
12.652000 0.9440 0.9480 0.9490 0.9490 0.9510
12.685275 0.9510 0.9460 0.9460 0.9440 0.9430
12.718000 0.9430 0.9410 0.9410 0.9410 0.9410
12.751275 0.9410 0.9390 0.9390 0.9380 0.9390
12.785000 0.9390 0.9360 0.9330 0.9280 0.9240
12.818275 0.9230 0.9190 0.9140 0.9140 0.9130
12.851000 0.9090 0.9130 0.9060 0.9030 0.8970
12.884275 0.8960 0.8940 0.8920 0.8910 0.8910
12.918000 0.8910 0.8920 0.8920 0.8920 0.8910
12.951275 0.8890 0.8870 0.8870 0.8860 0.8860
12.984000 0.8890 0.8940 0.8960 0.8970 0.8990
13.017275 0.9030 0.9060 0.9060 0.9080 0.9090
13.051000 0.9110 0.9140 0.9160 0.9180 0.9180
13.084275 0.9210 0.9240 0.9260 0.9240 0.9230
13.118000 0.9240 0.9280 0.9280 0.9290 0.9310
13.151275 0.9310 0.9310 0.9330 0.9330 0.9330
13.184000 0.9360 0.9360 0.9340 0.9310 0.9310
13.217275 0.9330 0.9340 0.9340 0.9360 0.9360
13.251000 0.9380 0.9390 0.9390 0.9390 0.9390
13.284275 0.9390 0.9380 0.9330 0.9330 0.9330
13.317000 0.9340 0.9340 0.9390 0.9380 0.9380
13.350275 0.9330 0.9330 0.9360 0.9390 0.9390
13.384000 0.9340 0.9340 0.9410 0.9410 0.9410
13.417275 0.9410 0.9380 0.9380 0.9390 0.9410
13.450000 0.9410 0.9410 0.9390 0.9410 0.9410
13.483275 0.9410 0.9430 0.9430 0.9430 0.9410
13.517000 0.9390 0.9340 0.9330 0.9330 0.9340
13.550275 0.9460 0.9460 0.9430 0.9340 0.9340
13.583000 0.9340 0.9340 0.9340 0.9340 0.9340
13.616275 0.9430 0.9430 0.9430 0.9410 0.9380
13.650000 0.9410 0.9390 0.9390 0.9340 0.9330
13.683275 0.9340 0.9340 0.9340 0.9360 0.9360
13.716000 0.9380 0.9360 0.9380 0.9390 0.9410
13.749275 0.9410 0.9410 0.9410 0.9390 0.9380
13.783000 0.9340 0.9340 0.9340 0.9340 0.9340
13.816275 0.9360 0.9360 0.9380 0.9390 0.9410
13.849000 0.9410 0.9410 0.9410 0.9410 0.9390
13.882275 0.9390 0.9380 0.9360 0.9330 0.9310
13.916000 0.9290 0.9330 0.9380 0.9360 0.9340
13.949275 0.9330 0.9310 0.9310 0.9310 0.9330
13.982000 0.9330 0.9330 0.9310 0.9310 0.9290
14.015275 0.9280 0.9280 0.9310 0.9310 0.9310
14.049000 0.9310 0.9290 0.9280 0.9290 0.9310
14.082275 0.9330 0.9330 0.9290 0.9290 0.9280
14.115000 0.9280 0.9280 0.9280 0.9260 0.9230
14.148275 0.9210 0.9210 0.9210 0.9230 0.9260
14.182000 0.9280 0.9290 0.9310 0.9290 0.9280
14.215275 0.9280 0.9280 0.9260 0.9260 0.9240
14.248000 0.9240 0.9230 0.9230 0.9210 0.9210
14.281275 0.9210 0.9210 0.9210 0.9210 0.9230
14.315000 0.9230 0.9210 0.9210 0.9210 0.9190
14.348275 0.9190 0.9180 0.9180 0.9180 0.9160
14.381000 0.9140 0.9140 0.9130 0.9140 0.9140
14.414275 0.9140 0.9140 0.9130 0.9110 0.9110
14.448000 0.9090 0.9080 0.9080 0.9060 0.9010
14.481275 0.8990 0.9010 0.9010 0.9030 0.9030
14.514000 0.9030 0.9010 0.8970 0.8970 0.8940
14.547275 0.8920 0.8920 0.8960 0.8990 0.8960
14.581000 0.8940 0.8890 0.8890 0.8970 0.8960
14.614275 0.8940 0.8910 0.8890 0.8860 0.8870
14.647000 0.8860 0.8860 0.8860 0.8840 0.8840
14.680275 0.8820 0.8820 0.8810 0.8770 0.8790
14.714000 0.8770 0.8760 0.8740 0.8720 0.8710
14.747275 0.8690 0.8690 0.8660 0.8670 0.8670
14.780000 0.8690 0.8690 0.8690 0.8690 0.8670
14.813275 0.8670 0.8660 0.8640 0.8620 0.8620
14.847000 0.8590 0.8570 0.8520 0.8510 0.8490
14.880275 0.8490 0.8470 0.8460 0.8460 0.8460
14.914000 0.8470 0.8470 0.8460 0.8460 0.8440
14.947275 0.8420 0.8410 0.8390 0.8370 0.8360
14.980000 0.8360 0.8360 0.8360 0.8360 0.8340
15.013275 0.8290 0.8270 0.8260 0.8260 0.8240
15.047000 0.8220 0.8240 0.8240 0.8260 0.8270
15.080275 0.8290 0.8320 0.8340 0.8360 0.8390
15.113000 0.8410 0.8410 0.8440 0.8440 0.8460
15.146275 0.8460 0.8470 0.8470 0.8510 0.8520
15.180000 0.8540 0.8540 0.8560 0.8540 0.8490
15.213275 0.8490 0.8470 0.8460 0.8440 0.8440
15.246000 0.8440 0.8440 0.8420 0.8420 0.8410
15.279275 0.8390 0.8390 0.8370 0.8360 0.8360
15.313000 0.8360 0.8340 0.8320 0.8290 0.8240
15.346275 0.8210 0.8140 0.8090 0.8040 0.8020
15.379000 0.7950 0.7850 0.7740 0.7620 0.7520
15.412275 0.7420 0.7390 0.7320 0.7250 0.7170
15.446000 0.7070 0.7020 0.6970 0.6850 0.6730
15.479275 0.6620 0.6480 0.6370 0.6230 0.6120
15.512000 0.6000 0.5880 0.5780 0.5680 0.5600
15.545275 0.5510 0.5430 0.5350 0.5260 0.5210
15.579000 0.5130 0.5060 0.5030 0.4960 0.4930
15.612275 0.4910 0.4910 0.4910 0.4910 0.4910
15.645000 0.4910 0.4890 0.4890 0.4880 0.4880
15.678275 0.4880 0.4890 0.4930 0.4960 0.4980
15.712000 0.5000 0.5010 0.5050 0.5060 0.5080
15.745275 0.5100 0.5130 0.5180 0.5210 0.5260
15.778000 0.5300 0.5330 0.5350 0.5360 0.5380
15.811275 0.5400 0.5410 0.5430 0.5430 0.5430
15.845000 0.5450 0.5450 0.5460 0.5480 0.5500
15.878275 0.5530 0.5550 0.5580 0.5600 0.5630
15.911000 0.5630 0.5650 0.5680 0.5680 0.5750
15.944275 0.5780 0.5800 0.5810 0.5830 0.5850
15.978000 0.5830
##END=
