##TITLE=1,1-DICHLOROETHANE
##JCAMP-DX=4.24
##DATA TYPE=INFRARED SPECTRUM
##CLASS=COBLENTZ
##ORIGIN=W.T. BOLLETER
##OWNER=COBLENTZ SOCIETY
Collection (C) 2018 copyright by the U.S. Secretary of Commerce
on behalf of the United States of America. All rights reserved.
##DATE=Not specified, most likely prior to 1970
##CAS REGISTRY NO=75-34-3
##MOLFORM=C2 H4 Cl2
##SOURCE REFERENCE=COBLENTZ NO. 4472
##$NIST SOURCE=COBLENTZ
##$NIST IMAGE=cob4472
##SPECTROMETER/DATA SYSTEM=Not specified, most likely a prism, grating, or hybrid spectrometer.
##PATH LENGTH=0.0025 CM
##SAMPLING PROCEDURE=TRANSMISSION
##RESOLUTION=4
##DATA PROCESSING=DIGITIZED BY NIST FROM HARD COPY
##XUNITS=MICROMETERS
##YUNITS=TRANSMITTANCE
##XFACTOR=1.000000
##YFACTOR=1
##DELTAX=000.017442
##FIRSTX=14.523
##LASTX=37.9648
##FIRSTY=0.008
##MAXX=37.9648
##MINX=14.523
##MAXY=0.921
##MINY=0.007
##NPOINTS=1345
##XYDATA=(X++(Y..Y))
14.523000 0.0080 0.0080 0.0080 0.0080 0.0080
14.610274 0.0080 0.0080 0.0080 0.0080 0.0080
14.698000 0.0080 0.0080 0.0080 0.0080 0.0080
14.785274 0.0080 0.0080 0.0070 0.0070 0.0080
14.872000 0.0080 0.0080 0.0080 0.0080 0.0080
14.959274 0.0080 0.0080 0.0080 0.0080 0.0080
15.047000 0.0080 0.0080 0.0080 0.0080 0.0080
15.134274 0.0100 0.0100 0.0100 0.0080 0.0080
15.221000 0.0080 0.0080 0.0080 0.0100 0.0100
15.308274 0.0100 0.0100 0.0100 0.0100 0.0100
15.395000 0.0080 0.0080 0.0080 0.0080 0.0080
15.482274 0.0080 0.0080 0.0080 0.0080 0.0080
15.570000 0.0080 0.0080 0.0080 0.0080 0.0080
15.657274 0.0080 0.0080 0.0080 0.0080 0.0100
15.744000 0.0120 0.0140 0.0140 0.0140 0.0160
15.831274 0.0210 0.0240 0.0300 0.0330 0.0400
15.919000 0.0490 0.0560 0.0780 0.0900 0.1060
16.006274 0.1600 0.1860 0.2010 0.2150 0.2400
16.093000 0.2590 0.2740 0.3000 0.3200 0.3340
16.180274 0.3540 0.3700 0.3820 0.4030 0.4160
16.267000 0.4300 0.4500 0.4510 0.4640 0.4730
16.354274 0.4780 0.4870 0.4910 0.5000 0.5010
16.442000 0.5070 0.5120 0.5160 0.5210 0.5240
16.529274 0.5280 0.5330 0.5350 0.5370 0.5370
16.616000 0.5390 0.5400 0.5400 0.5420 0.5420
16.703274 0.5460 0.5480 0.5480 0.5490 0.5510
16.791000 0.5550 0.5580 0.5640 0.5690 0.5780
16.878274 0.5850 0.5920 0.6030 0.6130 0.6200
16.965000 0.6260 0.6370 0.6450 0.6560 0.6670
17.052274 0.6700 0.6760 0.6880 0.6990 0.7020
17.140000 0.7060 0.7150 0.7240 0.7330 0.7450
17.227274 0.7520 0.7610 0.7650 0.7740 0.7810
17.314000 0.7880 0.7980 0.8000 0.8000 0.8040
17.401274 0.8110 0.8160 0.8220 0.8290 0.8320
17.488000 0.8360 0.8410 0.8450 0.8480 0.8500
17.575274 0.8520 0.8540 0.8550 0.8570 0.8590
17.663000 0.8590 0.8610 0.8620 0.8660 0.8680
17.750274 0.8700 0.8730 0.8770 0.8790 0.8800
17.837000 0.8840 0.8870 0.8890 0.8910 0.8930
17.924274 0.8950 0.8980 0.9000 0.9020 0.9020
18.012000 0.9030 0.9050 0.9070 0.9070 0.9090
18.099274 0.9090 0.9110 0.9120 0.9120 0.9140
18.186000 0.9140 0.9140 0.9140 0.9140 0.9160
18.273274 0.9180 0.9190 0.9210 0.9210 0.9210
18.360000 0.9210 0.9210 0.9210 0.9210 0.9210
18.447274 0.9210 0.9210 0.9210 0.9210 0.9210
18.535000 0.9210 0.9190 0.9190 0.9190 0.9180
18.622274 0.9180 0.9180 0.9160 0.9140 0.9120
18.709000 0.9120 0.9110 0.9110 0.9090 0.9090
18.796274 0.9070 0.9050 0.9030 0.9020 0.9020
18.884000 0.9000 0.9000 0.8980 0.8980 0.8960
18.971274 0.8960 0.8950 0.8950 0.8950 0.8950
19.058000 0.8960 0.8960 0.8960 0.8980 0.8980
19.145274 0.8980 0.9000 0.9020 0.9020 0.9030
19.233000 0.9030 0.9050 0.9050 0.9070 0.9070
19.320274 0.9070 0.9070 0.9070 0.9070 0.9070
19.407000 0.9070 0.9070 0.9070 0.9070 0.9070
19.494274 0.9050 0.9050 0.9030 0.9030 0.9020
19.581000 0.9020 0.9020 0.9000 0.9000 0.9000
19.668274 0.8980 0.8980 0.8960 0.8960 0.8950
19.756000 0.8930 0.8910 0.8890 0.8890 0.8870
19.843274 0.8860 0.8840 0.8820 0.8800 0.8770
19.930000 0.8770 0.8750 0.8750 0.8750 0.8730
20.017274 0.8730 0.8710 0.8700 0.8680 0.8680
20.105000 0.8660 0.8660 0.8640 0.8640 0.8640
20.192274 0.8640 0.8640 0.8620 0.8620 0.8620
20.279000 0.8610 0.8590 0.8590 0.8570 0.8570
20.366274 0.8570 0.8570 0.8570 0.8550 0.8550
20.453000 0.8540 0.8540 0.8540 0.8540 0.8520
20.540274 0.8520 0.8500 0.8500 0.8480 0.8480
20.628000 0.8450 0.8450 0.8410 0.8390 0.8390
20.715274 0.8390 0.8380 0.8360 0.8340 0.8320
20.802000 0.8320 0.8290 0.8270 0.8250 0.8230
20.889274 0.8230 0.8220 0.8220 0.8220 0.8200
20.977000 0.8200 0.8200 0.8180 0.8180 0.8160
21.064274 0.8160 0.8140 0.8140 0.8130 0.8130
21.151000 0.8110 0.8110 0.8090 0.8090 0.8070
21.238274 0.8060 0.8060 0.8040 0.8040 0.8040
21.326000 0.8020 0.8020 0.8020 0.8020 0.8020
21.413274 0.8000 0.8000 0.8000 0.8000 0.8000
21.500000 0.7980 0.7980 0.7970 0.7970 0.7950
21.587274 0.7900 0.7860 0.7860 0.7860 0.7860
21.674000 0.7840 0.7840 0.7840 0.7820 0.7820
21.761274 0.7810 0.7810 0.7810 0.7790 0.7770
21.849000 0.7750 0.7740 0.7720 0.7680 0.7660
21.936274 0.7650 0.7650 0.7630 0.7610 0.7590
22.023000 0.7560 0.7560 0.7540 0.7540 0.7540
22.110274 0.7520 0.7520 0.7520 0.7500 0.7500
22.198000 0.7490 0.7450 0.7430 0.7430 0.7430
22.285274 0.7430 0.7430 0.7410 0.7410 0.7400
22.372000 0.7400 0.7380 0.7360 0.7360 0.7340
22.459274 0.7330 0.7310 0.7290 0.7250 0.7250
22.547000 0.7250 0.7240 0.7240 0.7240 0.7240
22.634274 0.7220 0.7200 0.7170 0.7130 0.7110
22.721000 0.7110 0.7110 0.7090 0.7080 0.7080
22.808274 0.7060 0.7040 0.7020 0.7020 0.7020
22.895000 0.7020 0.7010 0.7010 0.6990 0.6990
22.982274 0.6970 0.6950 0.6880 0.6850 0.6830
23.070000 0.6790 0.6770 0.6760 0.6720 0.6700
23.157274 0.6670 0.6630 0.6580 0.6560 0.6530
23.244000 0.6510 0.6490 0.6450 0.6420 0.6400
23.331274 0.6350 0.6310 0.6290 0.6260 0.6170
23.419000 0.6080 0.6030 0.6010 0.5960 0.5900
23.506274 0.5850 0.5760 0.5670 0.5620 0.5530
23.593000 0.5490 0.5390 0.5320 0.5280 0.5240
23.680274 0.5160 0.5080 0.5030 0.5000 0.4850
23.767000 0.4800 0.4730 0.4670 0.4640 0.4530
23.854274 0.4340 0.4250 0.4140 0.4030 0.4000
23.942000 0.3870 0.3800 0.3730 0.3640 0.3520
24.029274 0.3340 0.3200 0.3140 0.3020 0.2900
24.116000 0.2790 0.2630 0.2540 0.2400 0.2290
24.203274 0.2170 0.2090 0.2010 0.1810 0.1650
24.291000 0.1540 0.1400 0.1280 0.1170 0.1080
24.378274 0.1010 0.0870 0.0830 0.0800 0.0720
24.465000 0.0690 0.0650 0.0480 0.0390 0.0370
24.552274 0.0350 0.0330 0.0320 0.0280 0.0280
24.640000 0.0260 0.0260 0.0260 0.0260 0.0260
24.727274 0.0260 0.0260 0.0260 0.0260 0.0260
24.814000 0.0280 0.0280 0.0280 0.0300 0.0320
24.901274 0.0350 0.0390 0.0400 0.0440 0.0480
24.988000 0.0530 0.0560 0.0710 0.0880 0.0990
25.075274 0.1040 0.1190 0.1330 0.1530 0.1610
25.163000 0.1760 0.1900 0.2110 0.2330 0.2450
25.250274 0.2630 0.2770 0.2910 0.3040 0.3270
25.337000 0.3360 0.3520 0.3640 0.3840 0.4020
25.424274 0.4120 0.4250 0.4370 0.4480 0.4620
25.512000 0.4820 0.4940 0.5030 0.5120 0.5210
25.599274 0.5300 0.5370 0.5440 0.5530 0.5580
25.686000 0.5650 0.5760 0.5830 0.5990 0.6040
25.773274 0.6190 0.6240 0.6330 0.6370 0.6420
25.860000 0.6510 0.6540 0.6560 0.6600 0.6650
25.947274 0.6740 0.6790 0.6860 0.6920 0.6930
26.035000 0.6970 0.7010 0.7020 0.7060 0.7080
26.122274 0.7110 0.7130 0.7180 0.7240 0.7270
26.209000 0.7340 0.7400 0.7450 0.7470 0.7490
26.296274 0.7500 0.7520 0.7540 0.7560 0.7590
26.384000 0.7630 0.7650 0.7680 0.7740 0.7750
26.471274 0.7770 0.7810 0.7810 0.7820 0.7840
26.558000 0.7860 0.7880 0.7950 0.7950 0.7980
26.645274 0.7980 0.7980 0.8000 0.8000 0.8020
26.733000 0.8020 0.8040 0.8040 0.8070 0.8090
26.820274 0.8090 0.8110 0.8110 0.8130 0.8140
26.907000 0.8140 0.8140 0.8140 0.8160 0.8180
26.994274 0.8200 0.8220 0.8230 0.8250 0.8270
27.081000 0.8290 0.8300 0.8320 0.8320 0.8340
27.168274 0.8360 0.8380 0.8390 0.8410 0.8430
27.256000 0.8450 0.8460 0.8480 0.8480 0.8500
27.343274 0.8520 0.8540 0.8550 0.8570 0.8590
27.430000 0.8610 0.8620 0.8640 0.8660 0.8680
27.517274 0.8700 0.8710 0.8730 0.8750 0.8790
27.605000 0.8800 0.8820 0.8840 0.8870 0.8890
27.692274 0.8930 0.8950 0.8960 0.8960 0.8980
27.779000 0.8980 0.8980 0.8980 0.8980 0.8980
27.866274 0.8980 0.9000 0.9000 0.9020 0.9020
27.953000 0.9030 0.9050 0.9070 0.9090 0.9090
28.040274 0.9110 0.9110 0.9110 0.9110 0.9120
28.128000 0.9120 0.9120 0.9120 0.9110 0.9110
28.215274 0.9110 0.9110 0.9110 0.9110 0.9110
28.302000 0.9110 0.9120 0.9120 0.9120 0.9120
28.389274 0.9110 0.9110 0.9110 0.9110 0.9090
28.477000 0.9090 0.9070 0.9070 0.9070 0.9070
28.564274 0.9070 0.9070 0.9070 0.9050 0.9030
28.651000 0.9020 0.9020 0.9000 0.9000 0.8980
28.738274 0.8960 0.8960 0.8960 0.8950 0.8930
28.826000 0.8910 0.8910 0.8890 0.8890 0.8890
28.913274 0.8890 0.8890 0.8890 0.8890 0.8870
29.000000 0.8860 0.8840 0.8820 0.8800 0.8800
29.087274 0.8790 0.8790 0.8770 0.8750 0.8710
29.174000 0.8700 0.8700 0.8680 0.8660 0.8640
29.261274 0.8620 0.8620 0.8610 0.8610 0.8590
29.349000 0.8590 0.8590 0.8590 0.8570 0.8570
29.436274 0.8570 0.8570 0.8570 0.8570 0.8570
29.523000 0.8570 0.8550 0.8550 0.8550 0.8540
29.610274 0.8540 0.8520 0.8520 0.8520 0.8520
29.698000 0.8500 0.8480 0.8480 0.8460 0.8460
29.785274 0.8460 0.8460 0.8450 0.8410 0.8380
29.872000 0.8360 0.8300 0.8290 0.8270 0.8250
29.959274 0.8220 0.8180 0.8140 0.8130 0.8110
30.047000 0.8110 0.8090 0.8060 0.8000 0.7980
30.134274 0.7970 0.7910 0.7880 0.7840 0.7820
30.221000 0.7790 0.7750 0.7740 0.7700 0.7650
30.308274 0.7650 0.7630 0.7610 0.7580 0.7500
30.395000 0.7430 0.7400 0.7310 0.7250 0.7180
30.482274 0.7060 0.6990 0.6860 0.6770 0.6670
30.570000 0.6600 0.6530 0.6490 0.6370 0.6260
30.657274 0.6130 0.6030 0.5990 0.5830 0.5720
30.744000 0.5620 0.5510 0.5420 0.5320 0.5230
30.831274 0.5140 0.5010 0.4980 0.4800 0.4670
30.919000 0.4530 0.4430 0.4300 0.4140 0.4030
31.006274 0.3870 0.3680 0.3480 0.3340 0.3250
31.093000 0.3140 0.3040 0.2970 0.2790 0.2660
31.180274 0.2540 0.2490 0.2360 0.2310 0.2250
31.267000 0.2150 0.2090 0.2020 0.1970 0.1830
31.354274 0.1770 0.1700 0.1670 0.1630 0.1600
31.442000 0.1580 0.1560 0.1540 0.1540 0.1530
31.529274 0.1530 0.1540 0.1560 0.1600 0.1610
31.616000 0.1670 0.1760 0.1810 0.1880 0.1990
31.703274 0.2040 0.2150 0.2220 0.2290 0.2380
31.791000 0.2490 0.2540 0.2660 0.2770 0.2900
31.878274 0.2980 0.3090 0.3270 0.3380 0.3430
31.965000 0.3520 0.3620 0.3710 0.3790 0.3960
32.052274 0.4190 0.4280 0.4350 0.4430 0.4500
32.140000 0.4570 0.4640 0.4710 0.4800 0.4910
32.227274 0.5000 0.5030 0.5100 0.5210 0.5260
32.314000 0.5370 0.5460 0.5480 0.5530 0.5560
32.401274 0.5580 0.5600 0.5640 0.5710 0.5760
32.488000 0.5800 0.5830 0.5900 0.5970 0.6010
32.575274 0.6040 0.6100 0.6170 0.6220 0.6260
32.663000 0.6290 0.6330 0.6370 0.6420 0.6470
32.750274 0.6490 0.6490 0.6510 0.6560 0.6610
32.837000 0.6650 0.6700 0.6770 0.6810 0.6810
32.924274 0.6850 0.6850 0.6860 0.6860 0.6860
33.012000 0.6860 0.6860 0.6860 0.6860 0.6850
33.099274 0.6850 0.6830 0.6810 0.6790 0.6790
33.186000 0.6770 0.6770 0.6770 0.6760 0.6760
33.273274 0.6760 0.6740 0.6740 0.6740 0.6760
33.360000 0.6770 0.6810 0.6860 0.6920 0.6920
33.447274 0.6950 0.6970 0.6970 0.6990 0.6990
33.535000 0.7010 0.7020 0.7020 0.7020 0.7040
33.622274 0.7040 0.7040 0.7060 0.7060 0.7080
33.709000 0.7080 0.7090 0.7090 0.7110 0.7110
33.796274 0.7110 0.7110 0.7130 0.7130 0.7130
33.884000 0.7130 0.7130 0.7130 0.7130 0.7130
33.971274 0.7130 0.7130 0.7130 0.7130 0.7110
34.058000 0.7090 0.7080 0.7080 0.7080 0.7080
34.145274 0.7060 0.7040 0.7010 0.7010 0.6990
34.233000 0.6990 0.6990 0.6990 0.6990 0.7010
34.320274 0.7010 0.7010 0.6990 0.6990 0.6950
34.407000 0.6920 0.6920 0.6900 0.6880 0.6860
34.494274 0.6830 0.6790 0.6760 0.6720 0.6720
34.581000 0.6690 0.6670 0.6670 0.6650 0.6610
34.668274 0.6580 0.6530 0.6490 0.6490 0.6470
34.756000 0.6380 0.6370 0.6350 0.6330 0.6290
34.843274 0.6240 0.6220 0.6200 0.6170 0.6130
34.930000 0.6100 0.6100 0.6080 0.6060 0.6030
35.017274 0.6010 0.5970 0.5920 0.5870 0.5800
35.105000 0.5780 0.5760 0.5740 0.5740 0.5720
35.192274 0.5710 0.5690 0.5670 0.5640 0.5600
35.279000 0.5550 0.5510 0.5420 0.5390 0.5370
35.366274 0.5330 0.5300 0.5260 0.5230 0.5210
35.453000 0.5160 0.5100 0.5080 0.5070 0.5030
35.540274 0.5010 0.5000 0.4910 0.4870 0.4830
35.628000 0.4800 0.4760 0.4730 0.4660 0.4590
35.715274 0.4510 0.4480 0.4350 0.4280 0.4190
35.802000 0.4160 0.4110 0.4020 0.4000 0.3980
35.889274 0.3890 0.3800 0.3770 0.3700 0.3620
35.977000 0.3590 0.3540 0.3500 0.3430 0.3300
36.064274 0.3220 0.3140 0.3110 0.3040 0.3020
36.151000 0.3000 0.2930 0.2910 0.2900 0.2820
36.238274 0.2770 0.2740 0.2700 0.2700 0.2660
36.326000 0.2650 0.2630 0.2590 0.2580 0.2580
36.413274 0.2560 0.2560 0.2540 0.2520 0.2520
36.500000 0.2500 0.2490 0.2490 0.2450 0.2450
36.587274 0.2430 0.2430 0.2400 0.2400 0.2380
36.674000 0.2380 0.2380 0.2380 0.2380 0.2380
36.761274 0.2380 0.2380 0.2380 0.2400 0.2400
36.849000 0.2400 0.2400 0.2400 0.2400 0.2400
36.936274 0.2400 0.2410 0.2410 0.2410 0.2430
37.023000 0.2450 0.2490 0.2520 0.2580 0.2590
37.110274 0.2630 0.2650 0.2680 0.2700 0.2700
37.198000 0.2700 0.2720 0.2750 0.2820 0.2840
37.285274 0.2860 0.2900 0.2930 0.3020 0.3040
37.372000 0.3110 0.3140 0.3180 0.3230 0.3270
37.459274 0.3300 0.3320 0.3360 0.3390 0.3430
37.547000 0.3450 0.3460 0.3480 0.3500 0.3520
37.634274 0.3540 0.3550 0.3570 0.3610 0.3610
37.721000 0.3610 0.3620 0.3620 0.3660 0.3680
37.808274 0.3700 0.3730 0.3750 0.3770 0.3770
37.895000 0.3790 0.3820 0.3840 0.3860 0.3860
##END=
