##TITLE=1,4-DICHLORO-2-BUTENE
##JCAMP-DX=4.24
##DATA TYPE=INFRARED SPECTRUM
##CLASS=COBLENTZ
##ORIGIN=W.T. BOLLETER
##OWNER=COBLENTZ SOCIETY
Collection (C) 2018 copyright by the U.S. Secretary of Commerce
on behalf of the United States of America. All rights reserved.
##DATE=Not specified, most likely prior to 1970
##NAMES=(2E)-1,4-dichloro-2-butene
##CAS REGISTRY NO=764-41-0
##MOLFORM=C4 H6 Cl2
##SOURCE REFERENCE=COBLENTZ NO. 4514
##$NIST SOURCE=COBLENTZ
##$NIST IMAGE=cob4514
##SPECTROMETER/DATA SYSTEM=Not specified, most likely a prism, grating, or hybrid spectrometer.
##PATH LENGTH=0.0025 CM
##SAMPLING PROCEDURE=TRANSMISSION
##RESOLUTION=4
##DATA PROCESSING=DIGITIZED BY NIST FROM HARD COPY
##XUNITS=MICROMETERS
##YUNITS=TRANSMITTANCE
##XFACTOR=1.000000
##YFACTOR=1
##DELTAX=000.017488
##FIRSTX=14.426
##LASTX=38
##FIRSTY=0
##MAXX=38
##MINX=14.426
##MAXY=0.95
##MINY=0
##NPOINTS=1349
##XYDATA=(X++(Y..Y))
14.426000 0.0000 0.0000 0.0000 0.0000 0.0000
14.513505 0.0000 0.0000 0.0000 0.0000 0.0000
14.601000 0.0000 0.0000 0.0000 0.0000 0.0000
14.688505 0.0000 0.0000 0.0000 0.0000 0.0000
14.776000 0.0000 0.0000 0.0000 0.0000 0.0000
14.863505 0.0000 0.0000 0.0010 0.0010 0.0010
14.951000 0.0010 0.0010 0.0010 0.0010 0.0010
15.038505 0.0010 0.0010 0.0010 0.0010 0.0010
15.126000 0.0010 0.0010 0.0010 0.0010 0.0010
15.213505 0.0010 0.0010 0.0010 0.0010 0.0010
15.300000 0.0010 0.0030 0.0030 0.0050 0.0050
15.387505 0.0070 0.0070 0.0100 0.0120 0.0160
15.475000 0.0190 0.0210 0.0240 0.0260 0.0300
15.562505 0.0330 0.0350 0.0350 0.0390 0.0480
15.650000 0.0600 0.0730 0.0780 0.0810 0.0890
15.737505 0.0900 0.0990 0.1030 0.1220 0.1310
15.825000 0.1390 0.1490 0.1630 0.1710 0.1850
15.912505 0.2060 0.2120 0.2220 0.2290 0.2490
16.000000 0.2650 0.2810 0.2940 0.3080 0.3190
16.087505 0.3240 0.3360 0.3490 0.3580 0.3700
16.175000 0.3790 0.3950 0.4020 0.4170 0.4240
16.262505 0.4380 0.4500 0.4610 0.4740 0.4840
16.350000 0.4990 0.5180 0.5320 0.5410 0.5500
16.437505 0.5610 0.5660 0.5750 0.5820 0.5900
16.525000 0.5930 0.5950 0.5980 0.6000 0.6000
16.612505 0.6020 0.6040 0.6070 0.6090 0.6110
16.700000 0.6110 0.6130 0.6140 0.6200 0.6270
16.787505 0.6360 0.6480 0.6500 0.6520 0.6570
16.874000 0.6640 0.6720 0.6770 0.6820 0.6860
16.961505 0.6880 0.6910 0.6950 0.6980 0.7000
17.049000 0.7000 0.7000 0.7000 0.7000 0.6980
17.136505 0.6960 0.6860 0.6800 0.6770 0.6680
17.224000 0.6610 0.6520 0.6390 0.6290 0.6130
17.311505 0.6040 0.5950 0.5750 0.5540 0.5490
17.399000 0.5340 0.5080 0.5040 0.4990 0.4880
17.486505 0.4650 0.4470 0.4240 0.4040 0.3850
17.574000 0.3670 0.3520 0.3330 0.3220 0.3060
17.661505 0.2970 0.2850 0.2740 0.2670 0.2650
17.749000 0.2630 0.2650 0.2690 0.2790 0.2990
17.836505 0.3110 0.3330 0.3520 0.3720 0.4020
17.924000 0.4270 0.4490 0.4700 0.4910 0.5430
18.011505 0.5770 0.6160 0.6380 0.6540 0.6750
18.099000 0.6960 0.7160 0.7300 0.7480 0.7640
18.186505 0.7730 0.7870 0.8000 0.8110 0.8230
18.273000 0.8280 0.8370 0.8460 0.8500 0.8570
18.360505 0.8600 0.8640 0.8690 0.8750 0.8800
18.448000 0.8840 0.8850 0.8890 0.8930 0.8940
18.535505 0.8960 0.8960 0.8960 0.8980 0.8980
18.623000 0.8980 0.8980 0.8980 0.8980 0.8980
18.710505 0.8980 0.8980 0.8980 0.9000 0.9000
18.798000 0.9010 0.9010 0.9010 0.9010 0.9030
18.885505 0.9030 0.9070 0.9120 0.9160 0.9160
18.973000 0.9180 0.9180 0.9190 0.9230 0.9260
19.060505 0.9300 0.9340 0.9370 0.9410 0.9420
19.148000 0.9440 0.9440 0.9460 0.9460 0.9480
19.235505 0.9480 0.9500 0.9500 0.9480 0.9480
19.323000 0.9480 0.9460 0.9460 0.9440 0.9440
19.410505 0.9420 0.9420 0.9390 0.9390 0.9370
19.498000 0.9350 0.9340 0.9320 0.9300 0.9260
19.585505 0.9210 0.9190 0.9160 0.9140 0.9100
19.672000 0.9030 0.9010 0.8980 0.8940 0.8850
19.759505 0.8800 0.8770 0.8730 0.8690 0.8640
19.847000 0.8600 0.8550 0.8530 0.8520 0.8440
19.934505 0.8430 0.8390 0.8360 0.8320 0.8280
20.022000 0.8250 0.8190 0.8160 0.8140 0.8120
20.109505 0.8090 0.8050 0.8020 0.8000 0.7980
20.197000 0.7960 0.7950 0.7930 0.7890 0.7860
20.284505 0.7840 0.7800 0.7770 0.7770 0.7750
20.372000 0.7730 0.7730 0.7710 0.7710 0.7710
20.459505 0.7700 0.7700 0.7700 0.7700 0.7710
20.547000 0.7710 0.7730 0.7730 0.7730 0.7730
20.634505 0.7730 0.7750 0.7770 0.7780 0.7820
20.722000 0.7840 0.7840 0.7840 0.7860 0.7860
20.809505 0.7870 0.7910 0.7930 0.7960 0.7960
20.897000 0.7980 0.7980 0.8000 0.8000 0.8020
20.984505 0.8030 0.8030 0.8030 0.8030 0.8050
21.072000 0.8050 0.8050 0.8050 0.8050 0.8050
21.159505 0.8030 0.8030 0.8020 0.8020 0.8000
21.246000 0.8000 0.7980 0.7960 0.7930 0.7890
21.333505 0.7890 0.7870 0.7870 0.7860 0.7800
21.421000 0.7770 0.7750 0.7730 0.7730 0.7710
21.508505 0.7710 0.7700 0.7680 0.7680 0.7680
21.596000 0.7680 0.7660 0.7660 0.7660 0.7660
21.683505 0.7660 0.7660 0.7680 0.7680 0.7700
21.771000 0.7700 0.7710 0.7750 0.7750 0.7770
21.858505 0.7780 0.7780 0.7780 0.7780 0.7780
21.946000 0.7780 0.7800 0.7800 0.7820 0.7820
22.033505 0.7840 0.7860 0.7860 0.7860 0.7860
22.121000 0.7860 0.7860 0.7860 0.7860 0.7860
22.208505 0.7860 0.7870 0.7870 0.7870 0.7870
22.296000 0.7860 0.7840 0.7820 0.7780 0.7780
22.383505 0.7770 0.7770 0.7710 0.7680 0.7640
22.471000 0.7640 0.7610 0.7540 0.7480 0.7450
22.558505 0.7390 0.7290 0.7230 0.7200 0.7110
22.645000 0.7020 0.6980 0.6800 0.6700 0.6630
22.732505 0.6480 0.6250 0.6090 0.6000 0.5860
22.820000 0.5590 0.5360 0.5250 0.5040 0.4950
22.907505 0.4840 0.4560 0.4420 0.4220 0.3950
22.995000 0.3680 0.3420 0.3150 0.2950 0.2690
23.082505 0.2450 0.2210 0.1970 0.1810 0.1620
23.170000 0.1490 0.1280 0.1060 0.0980 0.0810
23.257505 0.0710 0.0690 0.0670 0.0530 0.0480
23.345000 0.0420 0.0320 0.0300 0.0260 0.0260
23.432505 0.0240 0.0230 0.0230 0.0210 0.0210
23.520000 0.0210 0.0230 0.0240 0.0240 0.0260
23.607505 0.0280 0.0320 0.0330 0.0330 0.0350
23.695000 0.0370 0.0440 0.0510 0.0670 0.0810
23.782505 0.0960 0.1010 0.1170 0.1310 0.1490
23.870000 0.1690 0.1940 0.2190 0.2470 0.2630
23.957505 0.2790 0.3010 0.3260 0.3350 0.3600
24.045000 0.3790 0.3930 0.4010 0.4060 0.4260
24.132505 0.4470 0.4540 0.4680 0.4790 0.4860
24.219000 0.5060 0.5240 0.5360 0.5500 0.5590
24.306505 0.5730 0.5770 0.5860 0.5930 0.6020
24.394000 0.6090 0.6180 0.6230 0.6290 0.6320
24.481505 0.6390 0.6430 0.6470 0.6500 0.6550
24.569000 0.6590 0.6640 0.6680 0.6720 0.6730
24.656505 0.6750 0.6800 0.6820 0.6820 0.6840
24.744000 0.6860 0.6890 0.6950 0.6980 0.7020
24.831505 0.7050 0.7110 0.7210 0.7210 0.7250
24.919000 0.7270 0.7300 0.7300 0.7320 0.7340
25.006505 0.7360 0.7360 0.7360 0.7360 0.7360
25.094000 0.7340 0.7340 0.7340 0.7320 0.7300
25.181505 0.7300 0.7300 0.7300 0.7290 0.7270
25.269000 0.7250 0.7230 0.7200 0.7160 0.7140
25.356505 0.7110 0.7090 0.7050 0.7020 0.7020
25.444000 0.7000 0.6960 0.6950 0.6910 0.6860
25.531505 0.6840 0.6770 0.6700 0.6640 0.6590
25.618000 0.6550 0.6520 0.6500 0.6470 0.6410
25.705505 0.6380 0.6340 0.6290 0.6220 0.6130
25.793000 0.6020 0.5950 0.5770 0.5720 0.5650
25.880505 0.5590 0.5540 0.5520 0.5490 0.5380
25.968000 0.5320 0.5220 0.5080 0.5000 0.4990
26.055505 0.4950 0.4910 0.4860 0.4810 0.4770
26.143000 0.4700 0.4670 0.4630 0.4580 0.4520
26.230505 0.4490 0.4310 0.4260 0.4220 0.4180
26.318000 0.4170 0.4090 0.4020 0.3990 0.3880
26.405505 0.3830 0.3810 0.3740 0.3680 0.3650
26.493000 0.3630 0.3600 0.3520 0.3520 0.3510
26.580505 0.3440 0.3400 0.3310 0.3290 0.3260
26.668000 0.3240 0.3220 0.3200 0.3190 0.3150
26.755505 0.3130 0.3110 0.3080 0.3040 0.3010
26.843000 0.2990 0.2920 0.2920 0.2900 0.2880
26.930505 0.2860 0.2850 0.2850 0.2790 0.2760
27.017000 0.2740 0.2720 0.2700 0.2700 0.2700
27.104505 0.2690 0.2690 0.2670 0.2670 0.2670
27.192000 0.2670 0.2650 0.2650 0.2650 0.2630
27.279505 0.2620 0.2600 0.2600 0.2580 0.2580
27.367000 0.2560 0.2560 0.2540 0.2540 0.2540
27.454505 0.2530 0.2530 0.2530 0.2530 0.2540
27.542000 0.2540 0.2540 0.2560 0.2560 0.2540
27.629505 0.2540 0.2530 0.2530 0.2490 0.2490
27.717000 0.2470 0.2450 0.2450 0.2440 0.2420
27.804505 0.2400 0.2330 0.2310 0.2290 0.2290
27.892000 0.2280 0.2280 0.2260 0.2240 0.2240
27.979505 0.2240 0.2240 0.2240 0.2220 0.2210
28.067000 0.2170 0.2150 0.2150 0.2150 0.2130
28.154505 0.2130 0.2130 0.2120 0.2120 0.2130
28.242000 0.2130 0.2150 0.2150 0.2150 0.2130
28.329505 0.2130 0.2120 0.2120 0.2120 0.2120
28.417000 0.2120 0.2130 0.2150 0.2150 0.2150
28.504505 0.2170 0.2170 0.2150 0.2150 0.2170
28.591000 0.2190 0.2210 0.2240 0.2260 0.2260
28.678505 0.2280 0.2330 0.2380 0.2440 0.2490
28.766000 0.2510 0.2540 0.2690 0.2760 0.2810
28.853505 0.2830 0.2860 0.2920 0.2990 0.3010
28.941000 0.3060 0.3170 0.3240 0.3290 0.3350
29.028505 0.3400 0.3450 0.3510 0.3510 0.3540
29.116000 0.3630 0.3700 0.3760 0.3810 0.3810
29.203505 0.3900 0.3970 0.3990 0.4040 0.4130
29.291000 0.4180 0.4240 0.4340 0.4400 0.4430
29.378505 0.4500 0.4520 0.4580 0.4630 0.4650
29.466000 0.4680 0.4700 0.4740 0.4790 0.4840
29.553505 0.4880 0.4950 0.5020 0.5040 0.5090
29.641000 0.5110 0.5130 0.5160 0.5200 0.5250
29.728505 0.5290 0.5320 0.5360 0.5380 0.5430
29.816000 0.5500 0.5500 0.5520 0.5560 0.5570
29.903505 0.5590 0.5590 0.5610 0.5630 0.5630
29.990000 0.5660 0.5700 0.5730 0.5750 0.5750
30.077505 0.5770 0.5790 0.5790 0.5790 0.5790
30.165000 0.5790 0.5810 0.5810 0.5820 0.5840
30.252505 0.5840 0.5860 0.5880 0.5880 0.5900
30.340000 0.5900 0.5900 0.5900 0.5900 0.5910
30.427505 0.5910 0.5910 0.5910 0.5910 0.5910
30.515000 0.5910 0.5910 0.5900 0.5900 0.5900
30.602505 0.5900 0.5880 0.5880 0.5880 0.5880
30.690000 0.5880 0.5860 0.5860 0.5860 0.5860
30.777505 0.5860 0.5860 0.5840 0.5840 0.5820
30.865000 0.5820 0.5820 0.5820 0.5820 0.5820
30.952505 0.5820 0.5820 0.5840 0.5860 0.5860
31.040000 0.5860 0.5880 0.5880 0.5880 0.5880
31.127505 0.5880 0.5900 0.5900 0.5910 0.5910
31.215000 0.5910 0.5930 0.5930 0.5930 0.5950
31.302505 0.5970 0.5970 0.5970 0.5980 0.6000
31.390000 0.6000 0.6020 0.6020 0.6020 0.6040
31.477505 0.6040 0.6060 0.6090 0.6130 0.6160
31.564000 0.6180 0.6200 0.6200 0.6220 0.6230
31.651505 0.6250 0.6270 0.6320 0.6380 0.6430
31.739000 0.6480 0.6480 0.6500 0.6500 0.6500
31.826505 0.6500 0.6500 0.6500 0.6500 0.6500
31.914000 0.6500 0.6500 0.6500 0.6520 0.6520
32.001505 0.6540 0.6550 0.6570 0.6590 0.6610
32.089000 0.6630 0.6640 0.6640 0.6660 0.6660
32.176505 0.6660 0.6660 0.6660 0.6660 0.6680
32.264000 0.6680 0.6700 0.6700 0.6700 0.6700
32.351505 0.6720 0.6730 0.6730 0.6730 0.6730
32.439000 0.6750 0.6750 0.6770 0.6770 0.6790
32.526505 0.6800 0.6790 0.6790 0.6800 0.6800
32.614000 0.6800 0.6820 0.6820 0.6820 0.6820
32.701505 0.6840 0.6860 0.6880 0.6890 0.6890
32.789000 0.6890 0.6930 0.6950 0.6950 0.6960
32.876505 0.6960 0.6980 0.6980 0.7000 0.7000
32.963000 0.7020 0.7020 0.7000 0.6980 0.6960
33.050505 0.6950 0.6930 0.6910 0.6890 0.6880
33.138000 0.6820 0.6800 0.6800 0.6770 0.6750
33.225505 0.6720 0.6640 0.6630 0.6550 0.6520
33.313000 0.6500 0.6470 0.6380 0.6320 0.6310
33.400505 0.6290 0.6270 0.6270 0.6270 0.6270
33.488000 0.6270 0.6270 0.6270 0.6270 0.6270
33.575505 0.6250 0.6230 0.6200 0.6180 0.6180
33.663000 0.6140 0.6130 0.6130 0.6130 0.6110
33.750505 0.6090 0.6060 0.6060 0.6020 0.6020
33.838000 0.6000 0.6000 0.5980 0.5910 0.5900
33.925505 0.5880 0.5880 0.5860 0.5840 0.5840
34.013000 0.5820 0.5810 0.5770 0.5730 0.5720
34.100505 0.5700 0.5700 0.5680 0.5680 0.5680
34.188000 0.5660 0.5650 0.5630 0.5610 0.5570
34.275505 0.5560 0.5540 0.5520 0.5500 0.5500
34.362000 0.5500 0.5490 0.5490 0.5490 0.5490
34.449505 0.5470 0.5430 0.5410 0.5380 0.5310
34.537000 0.5250 0.5180 0.5150 0.5110 0.5080
34.624505 0.5000 0.5000 0.4990 0.4970 0.4860
34.712000 0.4830 0.4810 0.4770 0.4750 0.4680
34.799505 0.4650 0.4630 0.4590 0.4580 0.4560
34.887000 0.4560 0.4560 0.4540 0.4520 0.4520
34.974505 0.4500 0.4490 0.4470 0.4450 0.4420
35.062000 0.4400 0.4400 0.4420 0.4430 0.4450
35.149505 0.4450 0.4470 0.4470 0.4450 0.4430
35.237000 0.4430 0.4430 0.4420 0.4420 0.4400
35.324505 0.4400 0.4380 0.4360 0.4360 0.4360
35.412000 0.4360 0.4360 0.4360 0.4360 0.4360
35.499505 0.4360 0.4360 0.4360 0.4360 0.4360
35.587000 0.4340 0.4340 0.4330 0.4310 0.4290
35.674505 0.4290 0.4290 0.4290 0.4290 0.4290
35.762000 0.4290 0.4290 0.4290 0.4290 0.4290
35.849505 0.4310 0.4310 0.4310 0.4310 0.4310
35.936000 0.4310 0.4310 0.4310 0.4290 0.4290
36.023505 0.4270 0.4270 0.4270 0.4260 0.4260
36.111000 0.4240 0.4240 0.4240 0.4240 0.4240
36.198505 0.4240 0.4240 0.4240 0.4260 0.4260
36.286000 0.4260 0.4270 0.4270 0.4270 0.4260
36.373505 0.4260 0.4260 0.4260 0.4260 0.4270
36.461000 0.4290 0.4290 0.4290 0.4310 0.4290
36.548505 0.4290 0.4290 0.4290 0.4290 0.4290
36.636000 0.4290 0.4290 0.4290 0.4290 0.4290
36.723505 0.4310 0.4310 0.4310 0.4310 0.4290
36.811000 0.4290 0.4290 0.4290 0.4290 0.4290
36.898505 0.4290 0.4290 0.4310 0.4310 0.4310
36.986000 0.4310 0.4290 0.4290 0.4290 0.4310
37.073505 0.4310 0.4330 0.4330 0.4340 0.4340
37.161000 0.4360 0.4400 0.4420 0.4450 0.4490
37.248505 0.4500 0.4540 0.4610 0.4630 0.4630
37.335000 0.4630 0.4650 0.4650 0.4650 0.4650
37.422505 0.4670 0.4670 0.4680 0.4680 0.4670
37.510000 0.4650 0.4650 0.4650 0.4670 0.4680
37.597505 0.4680 0.4790 0.4880 0.4880 0.4880
37.685000 0.4880 0.4880 0.4880 0.4880 0.4880
37.772505 0.4880 0.4880 0.4880 0.4880 0.4880
37.860000 0.4880 0.4880 0.4900 0.4900 0.4900
37.947505 0.4900 0.4910 0.4910 0.4910
##END=
