##TITLE=1,3-DICHLORO-2-BUTENE
##JCAMP-DX=4.24
##DATA TYPE=INFRARED SPECTRUM
##CLASS=COBLENTZ
##ORIGIN=W.T. BOLLETER
##OWNER=COBLENTZ SOCIETY
Collection (C) 2018 copyright by the U.S. Secretary of Commerce
on behalf of the United States of America. All rights reserved.
##DATE=Not specified, most likely prior to 1970
##NAMES=(2Z)-1,3-dichloro-2-butene
##CAS REGISTRY NO=926-57-8
##MOLFORM=C4 H6 Cl2
##SOURCE REFERENCE=COBLENTZ NO. 4512
##$NIST SOURCE=COBLENTZ
##$NIST IMAGE=cob4512
##SPECTROMETER/DATA SYSTEM=Not specified, most likely a prism, grating, or hybrid spectrometer.
##PATH LENGTH=0.0025 CM
##SAMPLING PROCEDURE=TRANSMISSION
##RESOLUTION=4
##DATA PROCESSING=DIGITIZED BY NIST FROM HARD COPY
##XUNITS=MICROMETERS
##YUNITS=TRANSMITTANCE
##XFACTOR=1.000000
##YFACTOR=1
##DELTAX=000.017558
##FIRSTX=14.402
##LASTX=38.0002
##FIRSTY=0
##MAXX=38.0002
##MINX=14.402
##MAXY=0.921
##MINY=0
##NPOINTS=1345
##XYDATA=(X++(Y..Y))
14.402000 0.0000 0.0000 0.0000 0.0000 0.0000
14.489855 0.0000 0.0000 0.0000 0.0000 0.0000
14.578000 0.0000 0.0000 0.0000 0.0000 0.0000
14.665855 0.0000 0.0000 0.0000 0.0000 0.0000
14.753000 0.0000 0.0000 0.0000 0.0000 0.0010
14.840855 0.0010 0.0010 0.0030 0.0050 0.0070
14.929000 0.0070 0.0080 0.0100 0.0140 0.0160
15.016855 0.0190 0.0210 0.0230 0.0230 0.0260
15.105000 0.0280 0.0350 0.0440 0.0490 0.0530
15.192855 0.0600 0.0690 0.0730 0.0740 0.0760
15.280000 0.0780 0.0780 0.0800 0.0800 0.0780
15.367855 0.0760 0.0760 0.0740 0.0740 0.0730
15.456000 0.0690 0.0670 0.0570 0.0460 0.0370
15.543855 0.0300 0.0280 0.0240 0.0230 0.0210
15.631000 0.0170 0.0140 0.0100 0.0080 0.0070
15.718855 0.0030 0.0030 0.0010 0.0010 0.0000
15.807000 0.0000 0.0000 0.0000 0.0000 0.0000
15.894855 0.0000 0.0000 0.0000 0.0000 0.0000
15.982000 0.0000 0.0000 0.0000 0.0000 0.0000
16.069855 0.0000 0.0000 0.0000 0.0000 0.0000
16.158000 0.0000 0.0000 0.0000 0.0010 0.0010
16.245855 0.0010 0.0030 0.0050 0.0050 0.0080
16.334000 0.0120 0.0190 0.0210 0.0240 0.0350
16.421855 0.0400 0.0580 0.0670 0.0760 0.0890
16.509000 0.1120 0.1490 0.1720 0.1870 0.2010
16.596855 0.2120 0.2280 0.2490 0.2630 0.2780
16.685000 0.2940 0.3030 0.3200 0.3350 0.3470
16.772855 0.3600 0.3760 0.3900 0.4010 0.4080
16.860000 0.4170 0.4220 0.4290 0.4380 0.4450
16.947855 0.4470 0.4500 0.4580 0.4630 0.4700
17.036000 0.4770 0.4830 0.4840 0.4860 0.4930
17.123855 0.4950 0.4970 0.4970 0.5000 0.5060
17.211000 0.5080 0.5090 0.5110 0.5130 0.5150
17.298855 0.5160 0.5180 0.5200 0.5240 0.5250
17.387000 0.5270 0.5270 0.5290 0.5290 0.5310
17.474855 0.5320 0.5340 0.5400 0.5410 0.5450
17.563000 0.5470 0.5500 0.5540 0.5560 0.5590
17.650855 0.5610 0.5650 0.5660 0.5720 0.5730
17.738000 0.5770 0.5810 0.5880 0.5910 0.5930
17.825855 0.5950 0.5970 0.5970 0.5980 0.6020
17.914000 0.6040 0.6060 0.6070 0.6090 0.6090
18.001855 0.6110 0.6110 0.6130 0.6130 0.6130
18.089000 0.6110 0.6110 0.6090 0.6090 0.6070
18.176855 0.6060 0.6040 0.6040 0.6020 0.6000
18.265000 0.6000 0.5970 0.5950 0.5930 0.5910
18.352855 0.5900 0.5840 0.5820 0.5810 0.5790
18.441000 0.5730 0.5700 0.5680 0.5650 0.5590
18.528855 0.5560 0.5520 0.5500 0.5470 0.5430
18.616000 0.5380 0.5320 0.5270 0.5250 0.5220
18.703855 0.5160 0.5130 0.5110 0.5080 0.5060
18.792000 0.5020 0.4990 0.4970 0.4950 0.4880
18.879855 0.4830 0.4790 0.4770 0.4750 0.4720
18.967000 0.4700 0.4680 0.4670 0.4650 0.4630
19.054855 0.4610 0.4590 0.4580 0.4580 0.4560
19.143000 0.4560 0.4540 0.4540 0.4540 0.4540
19.230855 0.4540 0.4560 0.4590 0.4610 0.4630
19.318000 0.4670 0.4670 0.4700 0.4720 0.4750
19.405855 0.4790 0.4830 0.4840 0.4860 0.4900
19.494000 0.4930 0.4990 0.5020 0.5080 0.5130
19.581855 0.5150 0.5180 0.5220 0.5270 0.5340
19.670000 0.5380 0.5450 0.5470 0.5500 0.5570
19.757855 0.5610 0.5630 0.5700 0.5720 0.5730
19.845000 0.5750 0.5770 0.5820 0.5860 0.5880
19.932855 0.5880 0.5860 0.5840 0.5820 0.5810
20.021000 0.5750 0.5720 0.5660 0.5590 0.5500
20.108855 0.5490 0.5430 0.5310 0.5220 0.5160
20.196000 0.5090 0.5000 0.4910 0.4810 0.4700
20.283855 0.4580 0.4450 0.4310 0.4180 0.4020
20.372000 0.3880 0.3720 0.3560 0.3380 0.3200
20.459855 0.3030 0.2850 0.2670 0.2490 0.2290
20.547000 0.2120 0.1920 0.1720 0.1530 0.1440
20.634855 0.1280 0.1190 0.1030 0.0920 0.0780
20.723000 0.0710 0.0620 0.0460 0.0390 0.0330
20.810855 0.0300 0.0240 0.0230 0.0210 0.0190
20.899000 0.0170 0.0160 0.0140 0.0120 0.0100
20.986855 0.0100 0.0080 0.0080 0.0080 0.0080
21.074000 0.0100 0.0120 0.0140 0.0170 0.0230
21.161855 0.0240 0.0260 0.0300 0.0370 0.0460
21.250000 0.0580 0.0730 0.0900 0.0960 0.1030
21.337855 0.1150 0.1460 0.1560 0.1740 0.1900
21.425000 0.2080 0.2280 0.2470 0.2690 0.2900
21.512855 0.3110 0.3330 0.3510 0.3670 0.3810
21.601000 0.3930 0.4080 0.4220 0.4340 0.4490
21.688855 0.4650 0.4790 0.4910 0.5000 0.5160
21.777000 0.5270 0.5410 0.5490 0.5540 0.5720
21.864855 0.5770 0.5860 0.5980 0.6070 0.6160
21.952000 0.6230 0.6310 0.6390 0.6480 0.6550
22.039855 0.6640 0.6720 0.6790 0.6840 0.6910
22.128000 0.6950 0.6980 0.7020 0.7090 0.7130
22.215855 0.7200 0.7270 0.7290 0.7320 0.7360
22.303000 0.7390 0.7450 0.7460 0.7480 0.7480
22.390855 0.7500 0.7520 0.7570 0.7590 0.7610
22.479000 0.7620 0.7660 0.7680 0.7700 0.7700
22.566855 0.7710 0.7710 0.7730 0.7730 0.7770
22.654000 0.7780 0.7780 0.7800 0.7820 0.7820
22.741855 0.7820 0.7820 0.7820 0.7840 0.7840
22.830000 0.7860 0.7860 0.7870 0.7890 0.7930
22.917855 0.7980 0.8020 0.8030 0.8070 0.8110
23.006000 0.8160 0.8190 0.8230 0.8270 0.8280
23.093855 0.8320 0.8340 0.8370 0.8390 0.8410
23.181000 0.8410 0.8460 0.8480 0.8500 0.8500
23.268855 0.8520 0.8530 0.8570 0.8590 0.8590
23.357000 0.8620 0.8640 0.8640 0.8680 0.8690
23.444855 0.8710 0.8730 0.8750 0.8780 0.8820
23.532000 0.8820 0.8850 0.8870 0.8890 0.8910
23.619855 0.8930 0.8940 0.8960 0.8960 0.8980
23.708000 0.9000 0.9010 0.9030 0.9050 0.9050
23.795855 0.9070 0.9070 0.9090 0.9090 0.9100
23.883000 0.9100 0.9120 0.9120 0.9120 0.9140
23.970855 0.9140 0.9140 0.9160 0.9160 0.9160
24.059000 0.9160 0.9180 0.9180 0.9180 0.9180
24.146855 0.9190 0.9210 0.9190 0.9190 0.9190
24.235000 0.9190 0.9190 0.9190 0.9190 0.9190
24.322855 0.9190 0.9190 0.9190 0.9190 0.9190
24.410000 0.9190 0.9190 0.9180 0.9180 0.9180
24.497855 0.9160 0.9160 0.9160 0.9160 0.9120
24.586000 0.9120 0.9120 0.9100 0.9090 0.9090
24.673855 0.9070 0.9050 0.9050 0.9030 0.9010
24.761000 0.9010 0.9000 0.8980 0.8960 0.8960
24.848855 0.8940 0.8930 0.8910 0.8910 0.8890
24.937000 0.8850 0.8850 0.8840 0.8820 0.8780
25.024855 0.8770 0.8730 0.8710 0.8690 0.8660
25.113000 0.8660 0.8640 0.8620 0.8590 0.8570
25.200855 0.8530 0.8520 0.8520 0.8500 0.8480
25.288000 0.8460 0.8440 0.8370 0.8360 0.8320
25.375855 0.8300 0.8250 0.8210 0.8180 0.8140
25.464000 0.8110 0.8050 0.8020 0.7960 0.7860
25.551855 0.7800 0.7750 0.7730 0.7700 0.7660
25.639000 0.7610 0.7540 0.7500 0.7450 0.7340
25.726855 0.7230 0.7130 0.7000 0.6960 0.6880
25.815000 0.6820 0.6770 0.6680 0.6590 0.6500
25.902855 0.6390 0.6220 0.6070 0.5980 0.5900
25.990000 0.5790 0.5590 0.5430 0.5400 0.5250
26.077855 0.5130 0.5000 0.4910 0.4720 0.4540
26.166000 0.4430 0.4330 0.4200 0.4060 0.3920
26.253855 0.3770 0.3610 0.3470 0.3310 0.3200
26.342000 0.3060 0.2940 0.2810 0.2690 0.2540
26.429855 0.2420 0.2290 0.2150 0.2040 0.1920
26.517000 0.1800 0.1690 0.1600 0.1490 0.1400
26.604855 0.1370 0.1300 0.1240 0.1210 0.1140
26.693000 0.1030 0.1010 0.0960 0.0870 0.0830
26.780855 0.0810 0.0810 0.0800 0.0800 0.0800
26.868000 0.0800 0.0810 0.0810 0.0850 0.0850
26.955855 0.0900 0.0960 0.0990 0.1080 0.1120
27.044000 0.1260 0.1420 0.1460 0.1550 0.1650
27.131855 0.1740 0.1870 0.1990 0.2130 0.2290
27.219000 0.2420 0.2540 0.2700 0.2830 0.2970
27.306855 0.3060 0.3270 0.3420 0.3560 0.3670
27.395000 0.3830 0.4010 0.4090 0.4240 0.4290
27.482855 0.4380 0.4470 0.4590 0.4720 0.4860
27.571000 0.5000 0.5110 0.5220 0.5310 0.5430
27.658855 0.5490 0.5560 0.5680 0.5790 0.5910
27.746000 0.6000 0.6110 0.6200 0.6290 0.6380
27.833855 0.6450 0.6470 0.6520 0.6630 0.6700
27.922000 0.6770 0.6800 0.6860 0.6890 0.6950
28.009855 0.7020 0.7070 0.7130 0.7160 0.7230
28.097000 0.7320 0.7370 0.7460 0.7460 0.7500
28.184855 0.7500 0.7550 0.7590 0.7610 0.7620
28.273000 0.7660 0.7700 0.7710 0.7710 0.7730
28.360855 0.7770 0.7820 0.7860 0.7870 0.7890
28.449000 0.7910 0.7950 0.8000 0.8020 0.8020
28.536855 0.8030 0.8050 0.8050 0.8070 0.8070
28.624000 0.8110 0.8120 0.8120 0.8140 0.8160
28.711855 0.8190 0.8210 0.8250 0.8250 0.8270
28.800000 0.8280 0.8280 0.8280 0.8280 0.8280
28.887855 0.8280 0.8280 0.8300 0.8320 0.8340
28.975000 0.8360 0.8360 0.8360 0.8360 0.8360
29.062855 0.8360 0.8360 0.8360 0.8360 0.8360
29.151000 0.8360 0.8360 0.8360 0.8360 0.8340
29.238855 0.8340 0.8340 0.8340 0.8340 0.8320
29.326000 0.8320 0.8320 0.8320 0.8320 0.8320
29.413855 0.8320 0.8320 0.8300 0.8300 0.8280
29.502000 0.8270 0.8270 0.8270 0.8270 0.8250
29.589855 0.8250 0.8250 0.8250 0.8250 0.8230
29.678000 0.8230 0.8230 0.8230 0.8230 0.8210
29.765855 0.8210 0.8190 0.8190 0.8160 0.8160
29.853000 0.8140 0.8140 0.8120 0.8090 0.8070
29.940855 0.8070 0.8050 0.8030 0.8020 0.8000
30.029000 0.7980 0.7960 0.7950 0.7930 0.7910
30.116855 0.7910 0.7890 0.7890 0.7870 0.7860
30.204000 0.7860 0.7840 0.7820 0.7800 0.7780
30.291855 0.7770 0.7770 0.7750 0.7710 0.7680
30.380000 0.7660 0.7610 0.7570 0.7550 0.7540
30.467855 0.7520 0.7500 0.7480 0.7450 0.7410
30.555000 0.7370 0.7340 0.7290 0.7230 0.7140
30.642855 0.7090 0.7020 0.7020 0.6980 0.6960
30.731000 0.6950 0.6880 0.6800 0.6770 0.6730
30.818855 0.6700 0.6630 0.6540 0.6500 0.6380
30.907000 0.6230 0.6200 0.6130 0.6060 0.6000
30.994855 0.5930 0.5860 0.5860 0.5720 0.5650
31.082000 0.5570 0.5500 0.5490 0.5360 0.5290
31.169855 0.5200 0.5150 0.5090 0.5000 0.4990
31.258000 0.4950 0.4880 0.4810 0.4770 0.4720
31.345855 0.4650 0.4590 0.4500 0.4450 0.4360
31.433000 0.4290 0.4220 0.4180 0.4150 0.4090
31.520855 0.4040 0.3990 0.3900 0.3850 0.3810
31.609000 0.3790 0.3760 0.3740 0.3720 0.3680
31.696855 0.3670 0.3650 0.3600 0.3580 0.3540
31.785000 0.3540 0.3520 0.3510 0.3490 0.3470
31.872855 0.3450 0.3440 0.3420 0.3400 0.3400
31.960000 0.3380 0.3380 0.3380 0.3380 0.3400
32.047855 0.3400 0.3420 0.3420 0.3420 0.3440
32.136000 0.3440 0.3470 0.3470 0.3490 0.3510
32.223855 0.3520 0.3560 0.3580 0.3600 0.3610
32.311000 0.3630 0.3650 0.3670 0.3700 0.3720
32.398855 0.3740 0.3790 0.3830 0.3850 0.3880
32.487000 0.3930 0.3970 0.4010 0.4040 0.4150
32.574855 0.4170 0.4180 0.4180 0.4240 0.4270
32.662000 0.4310 0.4340 0.4380 0.4450 0.4470
32.749855 0.4470 0.4490 0.4500 0.4520 0.4590
32.838000 0.4630 0.4650 0.4670 0.4700 0.4740
32.925855 0.4740 0.4750 0.4770 0.4770 0.4790
33.014000 0.4830 0.4900 0.4910 0.4930 0.4950
33.101855 0.4990 0.5000 0.5020 0.5040 0.5080
33.189000 0.5090 0.5150 0.5180 0.5240 0.5310
33.276855 0.5360 0.5400 0.5470 0.5490 0.5500
33.365000 0.5520 0.5570 0.5590 0.5630 0.5650
33.452855 0.5680 0.5720 0.5750 0.5770 0.5810
33.540000 0.5820 0.5860 0.5880 0.5900 0.5970
33.627855 0.5980 0.6000 0.6040 0.6110 0.6130
33.716000 0.6130 0.6140 0.6180 0.6220 0.6230
33.803855 0.6230 0.6250 0.6270 0.6310 0.6310
33.891000 0.6320 0.6340 0.6360 0.6380 0.6380
33.978855 0.6390 0.6410 0.6450 0.6470 0.6480
34.067000 0.6480 0.6500 0.6500 0.6500 0.6500
34.154855 0.6500 0.6500 0.6520 0.6540 0.6540
34.243000 0.6550 0.6590 0.6630 0.6630 0.6640
34.330855 0.6640 0.6640 0.6640 0.6640 0.6640
34.418000 0.6640 0.6640 0.6640 0.6640 0.6660
34.505855 0.6660 0.6640 0.6640 0.6640 0.6640
34.594000 0.6640 0.6640 0.6630 0.6630 0.6630
34.681855 0.6630 0.6630 0.6630 0.6610 0.6610
34.769000 0.6610 0.6630 0.6630 0.6630 0.6640
34.856855 0.6640 0.6640 0.6640 0.6640 0.6640
34.945000 0.6640 0.6640 0.6640 0.6640 0.6630
35.032855 0.6630 0.6630 0.6630 0.6630 0.6630
35.121000 0.6630 0.6630 0.6630 0.6630 0.6630
35.208855 0.6630 0.6630 0.6630 0.6630 0.6630
35.296000 0.6630 0.6630 0.6630 0.6630 0.6610
35.383855 0.6610 0.6610 0.6610 0.6610 0.6610
35.472000 0.6610 0.6610 0.6610 0.6610 0.6610
35.559855 0.6610 0.6590 0.6590 0.6590 0.6570
35.647000 0.6570 0.6570 0.6590 0.6590 0.6590
35.734855 0.6590 0.6590 0.6590 0.6590 0.6590
35.823000 0.6570 0.6570 0.6570 0.6570 0.6550
35.910855 0.6550 0.6550 0.6550 0.6550 0.6540
35.998000 0.6540 0.6540 0.6540 0.6520 0.6520
36.085855 0.6520 0.6500 0.6500 0.6500 0.6500
36.174000 0.6500 0.6480 0.6480 0.6450 0.6430
36.261855 0.6410 0.6410 0.6390 0.6390 0.6390
36.350000 0.6380 0.6380 0.6340 0.6340 0.6320
36.437855 0.6320 0.6310 0.6310 0.6290 0.6290
36.525000 0.6270 0.6270 0.6270 0.6250 0.6250
36.612855 0.6230 0.6230 0.6230 0.6220 0.6220
36.701000 0.6220 0.6220 0.6220 0.6200 0.6180
36.788855 0.6180 0.6160 0.6140 0.6130 0.6130
36.876000 0.6130 0.6130 0.6110 0.6110 0.6090
36.963855 0.6070 0.6070 0.6070 0.6060 0.6060
37.052000 0.6040 0.6040 0.6040 0.6020 0.6000
37.139855 0.6000 0.6000 0.6000 0.6000 0.6000
37.227000 0.6000 0.6000 0.5980 0.5980 0.5980
37.314855 0.5980 0.5980 0.5980 0.5980 0.5980
37.403000 0.5970 0.5970 0.5970 0.5970 0.5950
37.490855 0.5950 0.5930 0.5930 0.5910 0.5900
37.579000 0.5880 0.5880 0.5860 0.5840 0.5810
37.666855 0.5790 0.5770 0.5770 0.5750 0.5750
37.754000 0.5750 0.5750 0.5750 0.5730 0.5730
37.841855 0.5730 0.5720 0.5720 0.5680 0.5680
37.930000 0.5680 0.5680 0.5660 0.5660 0.5650
##END=
