##TITLE=N-PROPYL BROMIDE
##JCAMP-DX=4.24
##DATA TYPE=INFRARED SPECTRUM
##CLASS=COBLENTZ
##ORIGIN=CONTINENTAL OIL CO. (HAROLD F. SMITH)
##OWNER=COBLENTZ SOCIETY
Collection (C) 2018 copyright by the U.S. Secretary of Commerce
on behalf of the United States of America. All rights reserved.
##DATE=Not specified, most likely prior to 1970
##NAMES=1-bromopropane
##CAS REGISTRY NO=106-94-5
##MOLFORM=C3 H7 Br
##SOURCE REFERENCE=COBLENTZ NO. 3756
##$NIST SOURCE=COBLENTZ
##$NIST IMAGE=cob3756
##SPECTROMETER/DATA SYSTEM=Not specified, most likely a prism, grating, or hybrid spectrometer.
##STATE=LIQUID
##PATH LENGTH=0.0036 CM
##SAMPLING PROCEDURE=TRANSMISSION
##RESOLUTION=4
##DATA PROCESSING=DIGITIZED BY NIST FROM HARD COPY
##XUNITS=MICROMETERS
##YUNITS=TRANSMITTANCE
##XFACTOR=1.000000
##YFACTOR=1
##DELTAX=000.006189
##FIRSTX=12
##LASTX=25.9942
##FIRSTY=0.454
##MAXX=25.9942
##MINX=12
##MAXY=0.982
##MINY=0.065
##NPOINTS=2262
##XYDATA=(X++(Y..Y))
12.000000 0.4540 0.4400 0.4000 0.3990 0.3860
12.030960 0.3740 0.3540 0.3410 0.3270 0.3150
12.062000 0.3090 0.3040 0.3020 0.3020 0.3040
12.092960 0.3130 0.3220 0.3350 0.3500 0.3720
12.124000 0.3850 0.3950 0.4050 0.4190 0.4360
12.154960 0.4860 0.5310 0.5540 0.5820 0.6160
12.186000 0.6380 0.6590 0.6900 0.7260 0.7540
12.216960 0.7760 0.7960 0.8010 0.8100 0.8190
12.248000 0.8210 0.8300 0.8410 0.8520 0.8610
12.278960 0.8720 0.8800 0.8880 0.8920 0.8990
12.309000 0.9000 0.9020 0.9090 0.9110 0.9190
12.339960 0.9230 0.9250 0.9330 0.9390 0.9390
12.371000 0.9390 0.9400 0.9400 0.9400 0.9420
12.401960 0.9440 0.9440 0.9440 0.9440 0.9440
12.433000 0.9420 0.9390 0.9390 0.9390 0.9400
12.463960 0.9420 0.9440 0.9450 0.9450 0.9450
12.495000 0.9440 0.9440 0.9420 0.9440 0.9440
12.525960 0.9420 0.9420 0.9400 0.9390 0.9390
12.557000 0.9390 0.9360 0.9340 0.9330 0.9310
12.587960 0.9310 0.9280 0.9200 0.9140 0.9130
12.619000 0.9090 0.9090 0.9030 0.9020 0.9000
12.649960 0.9000 0.8990 0.8910 0.8850 0.8800
12.681000 0.8740 0.8710 0.8660 0.8610 0.8540
12.711960 0.8470 0.8400 0.8300 0.8240 0.8120
12.743000 0.8020 0.7880 0.7760 0.7600 0.7480
12.773960 0.7360 0.7220 0.7060 0.6830 0.6610
12.805000 0.6420 0.6220 0.6070 0.5850 0.5540
12.835960 0.5210 0.4920 0.4650 0.4420 0.4190
12.866000 0.3940 0.3640 0.3320 0.2910 0.2670
12.896960 0.2360 0.2040 0.1800 0.1610 0.1470
12.928000 0.1330 0.1220 0.1110 0.1000 0.0910
12.958960 0.0900 0.0820 0.0710 0.0660 0.0650
12.990000 0.0650 0.0660 0.0690 0.0720 0.0770
13.020960 0.0830 0.0930 0.1050 0.1240 0.1450
13.052000 0.1580 0.1770 0.1890 0.2040 0.2260
13.082960 0.2480 0.2820 0.3120 0.3400 0.3850
13.114000 0.4000 0.4160 0.4310 0.4470 0.4780
13.144960 0.5060 0.5240 0.5370 0.5520 0.5630
13.176000 0.5740 0.5880 0.5960 0.6070 0.6220
13.206960 0.6390 0.6470 0.6550 0.6670 0.6750
13.238000 0.6810 0.6900 0.6920 0.7010 0.7090
13.268960 0.7140 0.7230 0.7290 0.7320 0.7400
13.300000 0.7480 0.7530 0.7590 0.7600 0.7620
13.330960 0.7630 0.7650 0.7700 0.7730 0.7760
13.362000 0.7810 0.7840 0.7850 0.7870 0.7870
13.392960 0.7870 0.7880 0.7900 0.7910 0.7930
13.424000 0.7930 0.7910 0.7880 0.7840 0.7820
13.454960 0.7810 0.7730 0.7700 0.7650 0.7630
13.485000 0.7630 0.7620 0.7620 0.7600 0.7540
13.515960 0.7500 0.7400 0.7370 0.7340 0.7290
13.547000 0.7200 0.7120 0.7090 0.7040 0.6980
13.577960 0.6920 0.6870 0.6780 0.6700 0.6630
13.609000 0.6560 0.6550 0.6440 0.6350 0.6300
13.639960 0.6220 0.6140 0.6070 0.6020 0.6000
13.671000 0.5960 0.5940 0.5940 0.5960 0.5970
13.701960 0.6020 0.6040 0.6100 0.6140 0.6240
13.733000 0.6350 0.6450 0.6550 0.6630 0.6720
13.763960 0.6800 0.6900 0.7040 0.7170 0.7310
13.795000 0.7400 0.7480 0.7570 0.7620 0.7700
13.825960 0.7760 0.7850 0.7990 0.8020 0.8100
13.857000 0.8150 0.8240 0.8270 0.8330 0.8410
13.887960 0.8490 0.8540 0.8550 0.8570 0.8600
13.919000 0.8610 0.8640 0.8660 0.8720 0.8750
13.949960 0.8810 0.8810 0.8860 0.8890 0.8910
13.981000 0.8920 0.8940 0.8940 0.8970 0.8970
14.011960 0.8990 0.8990 0.8990 0.9000 0.9000
14.042000 0.9000 0.9020 0.9020 0.9020 0.9030
14.072960 0.9060 0.9080 0.9060 0.9060 0.9050
14.104000 0.9060 0.9060 0.9090 0.9090 0.9140
14.134960 0.9170 0.9200 0.9220 0.9220 0.9220
14.166000 0.9220 0.9220 0.9200 0.9200 0.9200
14.196960 0.9200 0.9220 0.9230 0.9220 0.9190
14.228000 0.9170 0.9190 0.9190 0.9190 0.9170
14.258960 0.9170 0.9170 0.9190 0.9190 0.9200
14.290000 0.9200 0.9200 0.9200 0.9220 0.9250
14.320960 0.9230 0.9220 0.9200 0.9200 0.9220
14.352000 0.9220 0.9230 0.9230 0.9230 0.9250
14.382960 0.9250 0.9230 0.9220 0.9200 0.9190
14.414000 0.9200 0.9200 0.9200 0.9200 0.9200
14.444960 0.9200 0.9190 0.9190 0.9190 0.9190
14.476000 0.9200 0.9200 0.9200 0.9200 0.9190
14.506960 0.9190 0.9200 0.9200 0.9200 0.9200
14.538000 0.9200 0.9200 0.9200 0.9200 0.9200
14.568960 0.9220 0.9230 0.9250 0.9250 0.9230
14.599000 0.9230 0.9220 0.9220 0.9200 0.9200
14.629960 0.9220 0.9220 0.9200 0.9200 0.9200
14.661000 0.9200 0.9200 0.9220 0.9220 0.9220
14.691960 0.9220 0.9200 0.9200 0.9200 0.9220
14.723000 0.9220 0.9190 0.9140 0.9130 0.9130
14.753960 0.9110 0.9090 0.9090 0.9090 0.9080
14.785000 0.9060 0.9060 0.9050 0.9050 0.9030
14.815960 0.9030 0.9030 0.9030 0.9030 0.9020
14.847000 0.9000 0.9000 0.8990 0.8990 0.8950
14.877960 0.8940 0.8920 0.8920 0.8920 0.8910
14.909000 0.8910 0.8910 0.8910 0.8910 0.8890
14.939960 0.8850 0.8800 0.8800 0.8770 0.8750
14.971000 0.8710 0.8710 0.8710 0.8660 0.8640
15.001960 0.8630 0.8610 0.8600 0.8570 0.8570
15.033000 0.8570 0.8550 0.8550 0.8550 0.8550
15.063960 0.8550 0.8540 0.8540 0.8520 0.8490
15.095000 0.8430 0.8410 0.8330 0.8300 0.8240
15.125960 0.8190 0.8130 0.8050 0.8010 0.7980
15.156000 0.7900 0.7810 0.7740 0.7710 0.7710
15.186960 0.7700 0.7670 0.7570 0.7430 0.7400
15.218000 0.7310 0.7220 0.7120 0.7040 0.6980
15.248960 0.6900 0.6860 0.6750 0.6700 0.6610
15.280000 0.6500 0.6350 0.6240 0.6070 0.5970
15.310960 0.5820 0.5710 0.5600 0.5370 0.5200
15.342000 0.5070 0.4870 0.4750 0.4620 0.4400
15.372960 0.4310 0.4220 0.4130 0.3890 0.3680
15.404000 0.3380 0.3160 0.3040 0.2870 0.2700
15.434960 0.2570 0.2460 0.2290 0.2200 0.2140
15.466000 0.2010 0.1900 0.1750 0.1610 0.1470
15.496960 0.1300 0.1220 0.1190 0.1110 0.1100
15.528000 0.1070 0.1020 0.1000 0.1000 0.0940
15.558960 0.0900 0.0860 0.0850 0.0830 0.0820
15.590000 0.0830 0.0850 0.0910 0.0930 0.0940
15.620960 0.1000 0.1000 0.1040 0.1110 0.1130
15.652000 0.1210 0.1310 0.1360 0.1440 0.1500
15.682960 0.1660 0.1770 0.1840 0.1900 0.2000
15.714000 0.2060 0.2140 0.2280 0.2370 0.2510
15.744960 0.2620 0.2770 0.3010 0.3290 0.3550
15.775000 0.3890 0.3970 0.4080 0.4160 0.4280
15.805960 0.4420 0.4500 0.4540 0.4680 0.4810
15.837000 0.4920 0.5040 0.5120 0.5210 0.5320
15.867960 0.5410 0.5460 0.5550 0.5650 0.5740
15.899000 0.5820 0.5860 0.5940 0.6020 0.6040
15.929960 0.6100 0.6130 0.6180 0.6240 0.6300
15.961000 0.6350 0.6410 0.6450 0.6500 0.6550
15.991960 0.6610 0.6660 0.6670 0.6720 0.6730
16.023000 0.6780 0.6780 0.6800 0.6810 0.6840
16.053960 0.6860 0.6890 0.6900 0.6980 0.7010
16.085000 0.7040 0.7040 0.7060 0.7080 0.7090
16.115960 0.7120 0.7150 0.7170 0.7180 0.7180
16.147000 0.7180 0.7180 0.7180 0.7180 0.7200
16.177960 0.7220 0.7230 0.7260 0.7290 0.7290
16.209000 0.7290 0.7340 0.7420 0.7420 0.7480
16.239960 0.7530 0.7630 0.7670 0.7680 0.7700
16.271000 0.7710 0.7710 0.7730 0.7740 0.7760
16.301960 0.7790 0.7810 0.7880 0.7900 0.7910
16.332000 0.7950 0.7980 0.8010 0.8010 0.8020
16.362960 0.8040 0.8090 0.8120 0.8150 0.8190
16.394000 0.8190 0.8210 0.8210 0.8210 0.8220
16.424960 0.8260 0.8270 0.8290 0.8290 0.8290
16.456000 0.8300 0.8320 0.8330 0.8330 0.8350
16.486960 0.8360 0.8400 0.8380 0.8400 0.8400
16.518000 0.8400 0.8410 0.8410 0.8410 0.8410
16.548960 0.8410 0.8430 0.8430 0.8430 0.8430
16.580000 0.8380 0.8430 0.8460 0.8490 0.8520
16.610960 0.8520 0.8500 0.8500 0.8500 0.8520
16.642000 0.8540 0.8550 0.8550 0.8550 0.8550
16.672960 0.8570 0.8540 0.8540 0.8540 0.8540
16.704000 0.8540 0.8550 0.8570 0.8580 0.8570
16.734960 0.8570 0.8570 0.8570 0.8600 0.8600
16.766000 0.8570 0.8570 0.8570 0.8550 0.8550
16.796960 0.8570 0.8570 0.8570 0.8600 0.8600
16.828000 0.8570 0.8570 0.8600 0.8600 0.8600
16.858960 0.8600 0.8580 0.8570 0.8570 0.8550
16.889000 0.8540 0.8520 0.8520 0.8520 0.8540
16.919960 0.8540 0.8540 0.8540 0.8520 0.8520
16.951000 0.8500 0.8520 0.8520 0.8520 0.8500
16.981960 0.8500 0.8500 0.8500 0.8500 0.8500
17.013000 0.8500 0.8500 0.8470 0.8460 0.8440
17.043960 0.8410 0.8410 0.8400 0.8400 0.8350
17.075000 0.8330 0.8330 0.8320 0.8320 0.8300
17.105960 0.8300 0.8270 0.8260 0.8220 0.8210
17.137000 0.8190 0.8190 0.8160 0.8150 0.8120
17.167960 0.8100 0.8100 0.8090 0.8090 0.8050
17.199000 0.8050 0.8040 0.8020 0.8010 0.7960
17.229960 0.7900 0.7870 0.7820 0.7790 0.7760
17.261000 0.7730 0.7710 0.7700 0.7630 0.7600
17.291960 0.7590 0.7570 0.7540 0.7510 0.7500
17.323000 0.7400 0.7310 0.7250 0.7230 0.7200
17.353960 0.7200 0.7170 0.7140 0.7060 0.7010
17.385000 0.6980 0.6940 0.6900 0.6840 0.6810
17.415960 0.6720 0.6700 0.6610 0.6520 0.6500
17.447000 0.6440 0.6330 0.6220 0.6070 0.5940
17.477960 0.5910 0.5830 0.5720 0.5630 0.5540
17.508000 0.5450 0.5340 0.5210 0.5070 0.5010
17.538960 0.4930 0.4840 0.4730 0.4560 0.4510
17.570000 0.4390 0.4300 0.4220 0.4080 0.3920
17.600960 0.3770 0.3580 0.3520 0.3360 0.3240
17.632000 0.3160 0.3020 0.2960 0.2760 0.2570
17.662960 0.2430 0.2340 0.2220 0.2110 0.2010
17.694000 0.1900 0.1800 0.1700 0.1640 0.1590
17.724960 0.1500 0.1350 0.1300 0.1240 0.1220
17.756000 0.1190 0.1110 0.1040 0.0990 0.0930
17.786960 0.0880 0.0830 0.0800 0.0740 0.0720
17.818000 0.0720 0.0720 0.0720 0.0720 0.0720
17.848960 0.0720 0.0720 0.0720 0.0720 0.0720
17.880000 0.0720 0.0720 0.0740 0.0740 0.0760
17.910960 0.0770 0.0800 0.0830 0.0860 0.0880
17.942000 0.0910 0.0930 0.0960 0.1020 0.1050
17.972960 0.1130 0.1180 0.1220 0.1280 0.1350
18.004000 0.1410 0.1490 0.1580 0.1660 0.1690
18.034960 0.1730 0.1830 0.1950 0.2010 0.2110
18.065000 0.2200 0.2310 0.2420 0.2510 0.2600
18.095960 0.2700 0.2730 0.2810 0.2980 0.3100
18.127000 0.3190 0.3270 0.3330 0.3500 0.3710
18.157960 0.3810 0.3910 0.4000 0.4050 0.4080
18.189000 0.4200 0.4300 0.4390 0.4440 0.4500
18.219960 0.4540 0.4620 0.4700 0.4750 0.4810
18.251000 0.4890 0.4930 0.5010 0.5090 0.5120
18.281960 0.5200 0.5320 0.5350 0.5400 0.5450
18.313000 0.5490 0.5510 0.5520 0.5590 0.5660
18.343960 0.5710 0.5790 0.5820 0.5880 0.5910
18.375000 0.5960 0.6000 0.6040 0.6070 0.6140
18.405960 0.6180 0.6190 0.6210 0.6250 0.6300
18.437000 0.6330 0.6390 0.6440 0.6500 0.6500
18.467960 0.6520 0.6550 0.6580 0.6590 0.6590
18.499000 0.6610 0.6690 0.6700 0.6800 0.6800
18.529960 0.6810 0.6830 0.6860 0.6890 0.6900
18.561000 0.6940 0.7000 0.7000 0.7010 0.7060
18.591960 0.7110 0.7150 0.7180 0.7180 0.7200
18.622000 0.7200 0.7220 0.7220 0.7230 0.7230
18.652960 0.7250 0.7290 0.7290 0.7310 0.7320
18.684000 0.7340 0.7370 0.7370 0.7370 0.7370
18.714960 0.7400 0.7420 0.7430 0.7450 0.7500
18.746000 0.7510 0.7530 0.7540 0.7600 0.7600
18.776960 0.7620 0.7620 0.7630 0.7680 0.7710
18.808000 0.7710 0.7740 0.7760 0.7760 0.7790
18.838960 0.7790 0.7790 0.7790 0.7810 0.7810
18.870000 0.7810 0.7810 0.7820 0.7840 0.7850
18.900960 0.7870 0.7900 0.7960 0.8010 0.8010
18.932000 0.8040 0.8050 0.8070 0.8070 0.8100
18.962960 0.8130 0.8130 0.8160 0.8180 0.8190
18.994000 0.8210 0.8220 0.8240 0.8240 0.8240
19.024960 0.8240 0.8260 0.8300 0.8300 0.8330
19.056000 0.8350 0.8350 0.8400 0.8400 0.8410
19.086960 0.8410 0.8430 0.8430 0.8500 0.8520
19.118000 0.8540 0.8540 0.8570 0.8600 0.8610
19.148960 0.8630 0.8630 0.8640 0.8640 0.8640
19.179000 0.8660 0.8680 0.8680 0.8690 0.8720
19.209960 0.8720 0.8720 0.8720 0.8720 0.8740
19.241000 0.8770 0.8800 0.8800 0.8810 0.8810
19.271960 0.8810 0.8810 0.8810 0.8830 0.8830
19.303000 0.8850 0.8860 0.8850 0.8850 0.8810
19.333960 0.8810 0.8800 0.8810 0.8830 0.8830
19.365000 0.8850 0.8850 0.8850 0.8850 0.8860
19.395960 0.8910 0.8920 0.8920 0.8920 0.8920
19.427000 0.8920 0.8940 0.8940 0.8950 0.9020
19.457960 0.9020 0.9030 0.9030 0.9030 0.9030
19.489000 0.9030 0.9030 0.9050 0.9080 0.9080
19.519960 0.9090 0.9110 0.9110 0.9130 0.9130
19.551000 0.9130 0.9130 0.9130 0.9130 0.9130
19.581960 0.9130 0.9140 0.9160 0.9160 0.9160
19.613000 0.9170 0.9170 0.9170 0.9190 0.9200
19.643960 0.9220 0.9220 0.9230 0.9230 0.9230
19.675000 0.9250 0.9250 0.9250 0.9250 0.9250
19.705960 0.9270 0.9280 0.9300 0.9310 0.9310
19.737000 0.9300 0.9300 0.9300 0.9310 0.9310
19.767960 0.9310 0.9310 0.9280 0.9300 0.9300
19.798000 0.9300 0.9300 0.9310 0.9310 0.9310
19.828960 0.9330 0.9330 0.9330 0.9330 0.9340
19.860000 0.9360 0.9330 0.9330 0.9360 0.9400
19.890960 0.9450 0.9480 0.9480 0.9450 0.9440
19.922000 0.9440 0.9440 0.9440 0.9440 0.9450
19.952960 0.9470 0.9470 0.9510 0.9500 0.9510
19.984000 0.9510 0.9530 0.9540 0.9530 0.9500
20.014960 0.9480 0.9470 0.9450 0.9500 0.9500
20.046000 0.9500 0.9500 0.9500 0.9500 0.9480
20.076960 0.9470 0.9470 0.9470 0.9470 0.9450
20.108000 0.9440 0.9440 0.9440 0.9450 0.9450
20.138960 0.9450 0.9450 0.9440 0.9420 0.9420
20.170000 0.9440 0.9440 0.9440 0.9450 0.9480
20.200960 0.9500 0.9500 0.9500 0.9510 0.9510
20.232000 0.9500 0.9470 0.9470 0.9470 0.9470
20.262960 0.9470 0.9470 0.9500 0.9510 0.9530
20.294000 0.9530 0.9530 0.9530 0.9530 0.9580
20.324960 0.9580 0.9540 0.9510 0.9510 0.9530
20.355000 0.9530 0.9530 0.9540 0.9560 0.9560
20.385960 0.9530 0.9510 0.9500 0.9480 0.9480
20.417000 0.9500 0.9510 0.9510 0.9530 0.9530
20.447960 0.9530 0.9530 0.9530 0.9530 0.9540
20.479000 0.9540 0.9540 0.9540 0.9540 0.9540
20.509960 0.9530 0.9530 0.9500 0.9440 0.9440
20.541000 0.9500 0.9510 0.9530 0.9530 0.9530
20.571960 0.9540 0.9540 0.9540 0.9540 0.9580
20.603000 0.9580 0.9560 0.9540 0.9530 0.9530
20.633960 0.9530 0.9530 0.9530 0.9510 0.9510
20.665000 0.9510 0.9510 0.9510 0.9530 0.9530
20.695960 0.9540 0.9540 0.9590 0.9560 0.9540
20.727000 0.9540 0.9540 0.9540 0.9560 0.9540
20.757960 0.9530 0.9510 0.9470 0.9450 0.9450
20.789000 0.9440 0.9480 0.9510 0.9510 0.9530
20.819960 0.9560 0.9590 0.9610 0.9620 0.9640
20.851000 0.9640 0.9640 0.9640 0.9620 0.9610
20.881960 0.9530 0.9530 0.9540 0.9590 0.9590
20.912000 0.9610 0.9610 0.9610 0.9560 0.9560
20.942960 0.9560 0.9580 0.9590 0.9590 0.9610
20.974000 0.9610 0.9610 0.9610 0.9610 0.9610
21.004960 0.9540 0.9540 0.9610 0.9610 0.9620
21.036000 0.9620 0.9620 0.9620 0.9640 0.9640
21.066960 0.9640 0.9620 0.9620 0.9620 0.9620
21.098000 0.9620 0.9620 0.9620 0.9640 0.9650
21.128960 0.9670 0.9670 0.9670 0.9670 0.9650
21.160000 0.9650 0.9640 0.9640 0.9640 0.9620
21.190960 0.9610 0.9620 0.9640 0.9640 0.9640
21.222000 0.9650 0.9670 0.9670 0.9670 0.9670
21.252960 0.9670 0.9670 0.9670 0.9680 0.9680
21.284000 0.9680 0.9680 0.9700 0.9700 0.9700
21.314960 0.9680 0.9670 0.9670 0.9670 0.9670
21.346000 0.9680 0.9700 0.9700 0.9700 0.9700
21.376960 0.9700 0.9680 0.9650 0.9650 0.9670
21.408000 0.9680 0.9680 0.9680 0.9680 0.9670
21.438960 0.9670 0.9670 0.9680 0.9700 0.9720
21.469000 0.9720 0.9700 0.9700 0.9700 0.9700
21.499960 0.9700 0.9700 0.9720 0.9720 0.9720
21.531000 0.9720 0.9700 0.9680 0.9680 0.9680
21.561960 0.9680 0.9680 0.9700 0.9700 0.9700
21.593000 0.9680 0.9680 0.9680 0.9680 0.9680
21.623960 0.9670 0.9670 0.9670 0.9670 0.9670
21.655000 0.9650 0.9640 0.9640 0.9650 0.9680
21.685960 0.9700 0.9700 0.9720 0.9720 0.9730
21.717000 0.9730 0.9730 0.9730 0.9750 0.9730
21.747960 0.9700 0.9650 0.9650 0.9650 0.9650
21.779000 0.9650 0.9670 0.9680 0.9700 0.9720
21.809960 0.9720 0.9720 0.9720 0.9720 0.9720
21.841000 0.9730 0.9750 0.9750 0.9750 0.9750
21.871960 0.9750 0.9750 0.9750 0.9730 0.9720
21.903000 0.9720 0.9670 0.9650 0.9650 0.9650
21.933960 0.9650 0.9650 0.9670 0.9700 0.9720
21.965000 0.9720 0.9720 0.9720 0.9720 0.9720
21.995960 0.9730 0.9700 0.9720 0.9720 0.9730
22.027000 0.9750 0.9750 0.9750 0.9750 0.9760
22.057960 0.9760 0.9780 0.9780 0.9750 0.9730
22.088000 0.9730 0.9730 0.9750 0.9750 0.9760
22.118960 0.9790 0.9810 0.9810 0.9810 0.9810
22.150000 0.9810 0.9810 0.9810 0.9810 0.9820
22.180960 0.9820 0.9820 0.9820 0.9810 0.9810
22.212000 0.9810 0.9810 0.9810 0.9790 0.9760
22.242960 0.9750 0.9750 0.9760 0.9780 0.9790
22.274000 0.9790 0.9810 0.9790 0.9790 0.9810
22.304960 0.9790 0.9790 0.9790 0.9790 0.9790
22.336000 0.9790 0.9790 0.9790 0.9810 0.9810
22.366960 0.9810 0.9810 0.9810 0.9810 0.9700
22.398000 0.9700 0.9720 0.9720 0.9720 0.9730
22.428960 0.9730 0.9750 0.9760 0.9780 0.9780
22.460000 0.9780 0.9780 0.9780 0.9780 0.9790
22.490960 0.9780 0.9750 0.9730 0.9730 0.9730
22.522000 0.9730 0.9730 0.9750 0.9790 0.9790
22.552960 0.9790 0.9780 0.9760 0.9750 0.9720
22.584000 0.9720 0.9730 0.9750 0.9760 0.9760
22.614960 0.9760 0.9750 0.9750 0.9780 0.9780
22.645000 0.9780 0.9780 0.9760 0.9730 0.9700
22.675960 0.9720 0.9720 0.9720 0.9720 0.9700
22.707000 0.9650 0.9650 0.9680 0.9700 0.9720
22.737960 0.9720 0.9730 0.9730 0.9730 0.9760
22.769000 0.9780 0.9780 0.9780 0.9780 0.9760
22.799960 0.9750 0.9730 0.9750 0.9730 0.9720
22.831000 0.9720 0.9720 0.9720 0.9730 0.9750
22.861960 0.9730 0.9700 0.9700 0.9650 0.9640
22.893000 0.9640 0.9650 0.9650 0.9650 0.9670
22.923960 0.9670 0.9670 0.9670 0.9680 0.9680
22.955000 0.9700 0.9700 0.9700 0.9700 0.9700
22.985960 0.9700 0.9700 0.9700 0.9670 0.9640
23.017000 0.9640 0.9650 0.9670 0.9680 0.9700
23.047960 0.9700 0.9730 0.9730 0.9750 0.9750
23.079000 0.9750 0.9730 0.9720 0.9700 0.9700
23.109960 0.9680 0.9680 0.9680 0.9700 0.9700
23.141000 0.9700 0.9700 0.9680 0.9680 0.9670
23.171960 0.9670 0.9670 0.9670 0.9670 0.9670
23.202000 0.9700 0.9650 0.9640 0.9640 0.9640
23.232960 0.9640 0.9620 0.9610 0.9590 0.9580
23.264000 0.9560 0.9540 0.9540 0.9540 0.9540
23.294960 0.9540 0.9530 0.9530 0.9510 0.9510
23.326000 0.9510 0.9510 0.9510 0.9530 0.9560
23.356960 0.9580 0.9560 0.9540 0.9530 0.9530
23.388000 0.9540 0.9540 0.9540 0.9540 0.9540
23.418960 0.9530 0.9510 0.9480 0.9450 0.9450
23.450000 0.9450 0.9450 0.9470 0.9470 0.9470
23.480960 0.9480 0.9480 0.9510 0.9510 0.9510
23.512000 0.9480 0.9470 0.9450 0.9450 0.9440
23.542960 0.9440 0.9420 0.9420 0.9420 0.9400
23.574000 0.9400 0.9400 0.9400 0.9400 0.9400
23.604960 0.9420 0.9420 0.9450 0.9470 0.9470
23.636000 0.9450 0.9420 0.9390 0.9390 0.9390
23.666960 0.9390 0.9390 0.9400 0.9400 0.9400
23.698000 0.9340 0.9270 0.9220 0.9200 0.9190
23.728960 0.9190 0.9190 0.9190 0.9190 0.9190
23.760000 0.9200 0.9220 0.9200 0.9200 0.9200
23.790960 0.9200 0.9170 0.9170 0.9160 0.9160
23.821000 0.9160 0.9140 0.9130 0.9110 0.9110
23.851960 0.9060 0.9050 0.9050 0.9030 0.9020
23.883000 0.9020 0.8970 0.8940 0.8940 0.8920
23.913960 0.8920 0.8940 0.8950 0.8940 0.8910
23.945000 0.8850 0.8830 0.8810 0.8780 0.8780
23.975960 0.8780 0.8780 0.8780 0.8780 0.8770
24.007000 0.8780 0.8780 0.8800 0.8800 0.8810
24.037960 0.8850 0.8850 0.8830 0.8830 0.8850
24.069000 0.8860 0.8880 0.8880 0.8880 0.8880
24.099960 0.8880 0.8890 0.8910 0.8920 0.8940
24.131000 0.8950 0.8940 0.8920 0.8910 0.8910
24.161960 0.8910 0.8910 0.8890 0.8860 0.8850
24.193000 0.8800 0.8800 0.8780 0.8800 0.8800
24.223960 0.8800 0.8800 0.8800 0.8800 0.8800
24.255000 0.8800 0.8800 0.8780 0.8770 0.8750
24.285960 0.8740 0.8740 0.8740 0.8740 0.8720
24.317000 0.8710 0.8690 0.8690 0.8630 0.8610
24.347960 0.8550 0.8520 0.8500 0.8440 0.8430
24.378000 0.8430 0.8430 0.8410 0.8380 0.8350
24.408960 0.8330 0.8330 0.8320 0.8320 0.8300
24.440000 0.8300 0.8320 0.8320 0.8300 0.8300
24.470960 0.8300 0.8270 0.8220 0.8150 0.8130
24.502000 0.8130 0.8130 0.8130 0.8120 0.8100
24.532960 0.8070 0.8040 0.8040 0.8020 0.8020
24.564000 0.8020 0.8010 0.8010 0.7990 0.7950
24.594960 0.7900 0.7880 0.7870 0.7850 0.7820
24.626000 0.7760 0.7730 0.7700 0.7700 0.7700
24.656960 0.7670 0.7670 0.7650 0.7630 0.7600
24.688000 0.7560 0.7530 0.7530 0.7510 0.7500
24.718960 0.7450 0.7420 0.7400 0.7400 0.7370
24.750000 0.7360 0.7340 0.7320 0.7320 0.7310
24.780960 0.7290 0.7280 0.7260 0.7230 0.7200
24.812000 0.7170 0.7150 0.7140 0.7140 0.7120
24.842960 0.7110 0.7110 0.7110 0.7110 0.7120
24.874000 0.7120 0.7110 0.7060 0.7040 0.7030
24.904960 0.7000 0.7000 0.6980 0.7000 0.7000
24.935000 0.6980 0.6980 0.6970 0.6980 0.6970
24.965960 0.6950 0.6940 0.6940 0.6940 0.6900
24.997000 0.6900 0.6890 0.6870 0.6870 0.6860
25.027960 0.6830 0.6830 0.6840 0.6840 0.6860
25.059000 0.6860 0.6840 0.6860 0.6860 0.6870
25.089960 0.6890 0.6920 0.6940 0.6950 0.6970
25.121000 0.6970 0.6970 0.6980 0.6980 0.7000
25.151960 0.7000 0.6970 0.6970 0.6980 0.6980
25.183000 0.6980 0.6980 0.6980 0.7010 0.7030
25.213960 0.7030 0.7030 0.7040 0.7040 0.7110
25.245000 0.7120 0.7140 0.7140 0.7120 0.7120
25.275960 0.7140 0.7150 0.7170 0.7170 0.7170
25.307000 0.7140 0.7140 0.7170 0.7200 0.7200
25.337960 0.7220 0.7230 0.7230 0.7250 0.7260
25.369000 0.7280 0.7290 0.7290 0.7290 0.7290
25.399960 0.7310 0.7310 0.7310 0.7320 0.7320
25.431000 0.7340 0.7340 0.7360 0.7360 0.7360
25.461960 0.7370 0.7370 0.7370 0.7340 0.7310
25.492000 0.7290 0.7290 0.7310 0.7320 0.7340
25.522960 0.7320 0.7320 0.7310 0.7290 0.7290
25.554000 0.7280 0.7280 0.7260 0.7260 0.7280
25.584960 0.7280 0.7290 0.7290 0.7260 0.7260
25.616000 0.7260 0.7250 0.7230 0.7230 0.7230
25.646960 0.7230 0.7230 0.7250 0.7250 0.7250
25.678000 0.7230 0.7230 0.7250 0.7260 0.7260
25.708960 0.7260 0.7260 0.7280 0.7280 0.7280
25.740000 0.7260 0.7250 0.7230 0.7230 0.7220
25.770960 0.7200 0.7170 0.7170 0.7150 0.7140
25.802000 0.7140 0.7140 0.7140 0.7120 0.7110
25.832960 0.7110 0.7090 0.7110 0.7110 0.7090
25.864000 0.7090 0.7080 0.7040 0.7040 0.7030
25.894960 0.7030 0.7030 0.7010 0.6980 0.6980
25.926000 0.7010 0.7000 0.7000 0.7000 0.6980
25.956960 0.6940 0.6940 0.6950 0.6950 0.6940
25.988000 0.6940 0.6940
##END=
