##TITLE=Beta-HYDROXYBUTYRALDEHYDE
##JCAMP-DX=4.24
##DATA TYPE=INFRARED SPECTRUM
##CLASS=COBLENTZ
##ORIGIN=DOW CHEMICAL COMPANY
##OWNER=COBLENTZ SOCIETY
Collection (C) 2018 copyright by the U.S. Secretary of Commerce
on behalf of the United States of America. All rights reserved.
##DATE=Not specified, most likely prior to 1970
##NAMES=3-hydroxybutanal
ALDOL
##CAS REGISTRY NO=107-89-1
##MOLFORM=C4 H8 O2
##SOURCE REFERENCE=COBLENTZ NO. 1578
##$NIST SOURCE=COBLENTZ
##$NIST IMAGE=cob1578
##SPECTROMETER/DATA SYSTEM=Not specified, most likely a prism, grating, or hybrid spectrometer.
##STATE=LIQUID
##PATH LENGTH=FILM BETWEEN SALT PLATES
##SAMPLING PROCEDURE=TRANSMISSION
##RESOLUTION=4
##DATA PROCESSING=DIGITIZED BY NIST FROM HARD COPY
##XUNITS=MICROMETERS
##YUNITS=TRANSMITTANCE
##XFACTOR=1.000000
##YFACTOR=1
##DELTAX=000.006856
##FIRSTX=2.041
##LASTX=15.8837
##FIRSTY=0.711
##MAXX=15.8837
##MINX=2.041
##MAXY=0.847
##MINY=0.12
##NPOINTS=2020
##XYDATA=(X++(Y..Y))
2.041000 0.7110 0.7130 0.7130 0.7130 0.7160
2.075297 0.7180 0.7180 0.7180 0.7180 0.7180
2.110000 0.7190 0.7190 0.7190 0.7210 0.7210
2.144297 0.7210 0.7210 0.7210 0.7210 0.7210
2.178000 0.7210 0.7210 0.7190 0.7190 0.7190
2.212297 0.7190 0.7190 0.7190 0.7190 0.7180
2.247000 0.7180 0.7180 0.7180 0.7180 0.7180
2.281297 0.7180 0.7190 0.7190 0.7190 0.7210
2.315000 0.7230 0.7250 0.7260 0.7280 0.7280
2.349297 0.7280 0.7280 0.7280 0.7280 0.7300
2.384000 0.7300 0.7300 0.7280 0.7280 0.7260
2.418297 0.7260 0.7250 0.7250 0.7250 0.7250
2.452000 0.7250 0.7260 0.7280 0.7300 0.7310
2.486297 0.7310 0.7310 0.7330 0.7350 0.7350
2.521000 0.7370 0.7370 0.7380 0.7380 0.7380
2.555297 0.7380 0.7380 0.7380 0.7380 0.7380
2.590000 0.7380 0.7370 0.7370 0.7370 0.7380
2.624297 0.7380 0.7420 0.7420 0.7400 0.7400
2.658000 0.7370 0.7350 0.7310 0.7310 0.7260
2.692297 0.7210 0.7160 0.7070 0.6970 0.6760
2.727000 0.6680 0.6580 0.6470 0.6270 0.5990
2.761297 0.5870 0.5670 0.5480 0.5250 0.5010
2.795000 0.4770 0.4480 0.4290 0.4050 0.3780
2.829297 0.3650 0.3450 0.3360 0.3280 0.3170
2.864000 0.2980 0.2860 0.2800 0.2730 0.2690
2.898297 0.2640 0.2610 0.2590 0.2540 0.2520
2.932000 0.2520 0.2520 0.2560 0.2610 0.2660
2.966297 0.2680 0.2800 0.2810 0.2880 0.2980
3.001000 0.2980 0.3070 0.3140 0.3210 0.3280
3.035297 0.3290 0.3450 0.3480 0.3550 0.3640
3.070000 0.3690 0.3780 0.3860 0.3960 0.4020
3.104297 0.4070 0.4170 0.4260 0.4320 0.4460
3.138000 0.4480 0.4570 0.4670 0.4720 0.4810
3.172297 0.4870 0.4980 0.5120 0.5200 0.5290
3.207000 0.5390 0.5480 0.5600 0.5650 0.5680
3.241297 0.5720 0.5790 0.5800 0.5820 0.5840
3.275000 0.5840 0.5840 0.5820 0.5800 0.5770
3.309297 0.5700 0.5480 0.5270 0.4980 0.4460
3.344000 0.4070 0.3500 0.3400 0.3380 0.3400
3.378297 0.3410 0.3670 0.3790 0.3860 0.3930
3.412000 0.4000 0.4070 0.4100 0.4200 0.4260
3.446297 0.4310 0.4320 0.4360 0.4390 0.4550
3.481000 0.4600 0.4790 0.4940 0.5150 0.5360
3.515297 0.5480 0.5580 0.5680 0.5770 0.5820
3.549000 0.5960 0.5970 0.6080 0.6250 0.6370
3.583297 0.6490 0.6580 0.6660 0.6730 0.6710
3.618000 0.6710 0.6700 0.6700 0.6700 0.6700
3.652297 0.6700 0.6750 0.6800 0.6890 0.6970
3.687000 0.7040 0.7090 0.7110 0.7130 0.7180
3.721297 0.7190 0.7230 0.7280 0.7310 0.7380
3.755000 0.7420 0.7470 0.7470 0.7490 0.7500
3.789297 0.7520 0.7520 0.7520 0.7560 0.7590
3.824000 0.7620 0.7690 0.7710 0.7740 0.7780
3.858297 0.7800 0.7810 0.7830 0.7850 0.7860
3.892000 0.7880 0.7900 0.7900 0.7920 0.7920
3.926297 0.7920 0.7920 0.7920 0.7930 0.7950
3.961000 0.7970 0.7980 0.7980 0.7980 0.7980
3.995297 0.8000 0.8020 0.8070 0.8070 0.8070
4.029000 0.8090 0.8100 0.8100 0.8120 0.8170
4.063297 0.8170 0.8170 0.8170 0.8170 0.8170
4.098000 0.8190 0.8190 0.8190 0.8210 0.8210
4.132297 0.8210 0.8210 0.8210 0.8210 0.8190
4.167000 0.8170 0.8120 0.8100 0.8090 0.8020
4.201297 0.8000 0.8000 0.8000 0.8000 0.8000
4.235000 0.8000 0.8020 0.8090 0.8100 0.8160
4.269297 0.8170 0.8210 0.8240 0.8280 0.8290
4.304000 0.8290 0.8290 0.8280 0.8280 0.8280
4.338297 0.8280 0.8280 0.8290 0.8290 0.8290
4.372000 0.8310 0.8310 0.8310 0.8290 0.8280
4.406297 0.8290 0.8290 0.8310 0.8310 0.8310
4.441000 0.8290 0.8280 0.8280 0.8280 0.8310
4.475297 0.8310 0.8290 0.8290 0.8280 0.8280
4.509000 0.8280 0.8310 0.8310 0.8330 0.8330
4.543297 0.8330 0.8330 0.8330 0.8330 0.8330
4.578000 0.8330 0.8310 0.8290 0.8290 0.8290
4.612297 0.8290 0.8290 0.8310 0.8310 0.8310
4.646000 0.8290 0.8290 0.8290 0.8290 0.8290
4.680297 0.8290 0.8310 0.8310 0.8290 0.8290
4.715000 0.8290 0.8290 0.8290 0.8290 0.8290
4.749297 0.8280 0.8280 0.8280 0.8280 0.8280
4.784000 0.8280 0.8280 0.8280 0.8280 0.8280
4.818297 0.8290 0.8280 0.8280 0.8280 0.8280
4.852000 0.8280 0.8280 0.8280 0.8280 0.8280
4.886297 0.8280 0.8280 0.8280 0.8280 0.8280
4.921000 0.8280 0.8290 0.8290 0.8310 0.8310
4.955297 0.8310 0.8290 0.8290 0.8290 0.8290
4.989000 0.8310 0.8290 0.8310 0.8310 0.8350
5.023297 0.8350 0.8360 0.8360 0.8360 0.8350
5.058000 0.8350 0.8330 0.8350 0.8360 0.8380
5.092297 0.8400 0.8400 0.8380 0.8380 0.8380
5.126000 0.8410 0.8410 0.8400 0.8400 0.8410
5.160297 0.8410 0.8410 0.8410 0.8430 0.8430
5.195000 0.8430 0.8430 0.8430 0.8430 0.8430
5.229297 0.8430 0.8430 0.8430 0.8450 0.8450
5.263000 0.8450 0.8470 0.8450 0.8450 0.8450
5.297297 0.8450 0.8450 0.8450 0.8450 0.8450
5.332000 0.8450 0.8450 0.8450 0.8450 0.8450
5.366297 0.8450 0.8450 0.8450 0.8450 0.8450
5.401000 0.8450 0.8450 0.8450 0.8410 0.8410
5.435297 0.8400 0.8380 0.8380 0.8380 0.8380
5.469000 0.8380 0.8360 0.8360 0.8360 0.8360
5.503297 0.8360 0.8330 0.8310 0.8280 0.8260
5.538000 0.8240 0.8240 0.8240 0.8240 0.8240
5.572297 0.8240 0.8240 0.8240 0.8240 0.8240
5.606000 0.8230 0.8210 0.8210 0.8210 0.8190
5.640297 0.8190 0.8190 0.8190 0.8170 0.8120
5.675000 0.8090 0.8000 0.7980 0.7970 0.7900
5.709297 0.7850 0.7740 0.7660 0.7560 0.7450
5.743000 0.7250 0.7110 0.6950 0.6750 0.6680
5.777297 0.6590 0.6440 0.6390 0.6340 0.6300
5.812000 0.6300 0.6320 0.6390 0.6470 0.6520
5.846297 0.6610 0.6610 0.6280 0.6160 0.5670
5.881000 0.5480 0.5000 0.4690 0.4430 0.4240
5.915297 0.4200 0.4190 0.4200 0.4220 0.4360
5.949000 0.4570 0.4820 0.5010 0.5220 0.5370
5.983297 0.5530 0.5680 0.5750 0.5790 0.6040
6.018000 0.6160 0.6230 0.6270 0.6270 0.6270
6.052297 0.6270 0.6250 0.6230 0.6210 0.6200
6.086000 0.6200 0.6230 0.6300 0.6420 0.6590
6.120297 0.6870 0.6950 0.6970 0.7040 0.7110
6.155000 0.7190 0.7300 0.7380 0.7470 0.7540
6.189297 0.7560 0.7570 0.7610 0.7640 0.7640
6.223000 0.7680 0.7690 0.7710 0.7710 0.7740
6.257297 0.7760 0.7760 0.7780 0.7780 0.7780
6.292000 0.7800 0.7800 0.7800 0.7800 0.7800
6.326297 0.7800 0.7810 0.7810 0.7850 0.7850
6.360000 0.7860 0.7860 0.7880 0.7880 0.7950
6.394297 0.7970 0.7980 0.8020 0.8050 0.8050
6.429000 0.8000 0.8000 0.8000 0.8000 0.8020
6.463297 0.8040 0.8070 0.8100 0.8160 0.8170
6.498000 0.8170 0.8170 0.8170 0.8160 0.8160
6.532297 0.8120 0.8100 0.8100 0.8090 0.8090
6.566000 0.8090 0.8050 0.8050 0.8040 0.8020
6.600297 0.8000 0.7980 0.7980 0.7970 0.7930
6.635000 0.7920 0.7880 0.7860 0.7800 0.7740
6.669297 0.7690 0.7620 0.7540 0.7490 0.7450
6.703000 0.7400 0.7350 0.7260 0.7140 0.6970
6.737297 0.6800 0.6710 0.6630 0.6510 0.6280
6.772000 0.6150 0.5960 0.5770 0.5560 0.5370
6.806297 0.5290 0.5130 0.5010 0.4870 0.4750
6.840000 0.4650 0.4510 0.4410 0.4380 0.4310
6.874297 0.4260 0.4240 0.4240 0.4240 0.4260
6.909000 0.4270 0.4290 0.4310 0.4310 0.4310
6.943297 0.4310 0.4290 0.4270 0.4200 0.4190
6.977000 0.4150 0.4140 0.4080 0.4020 0.3910
7.011297 0.3880 0.3860 0.3830 0.3790 0.3760
7.046000 0.3720 0.3710 0.3710 0.3740 0.3790
7.080297 0.3930 0.4070 0.4120 0.4270 0.4360
7.115000 0.4460 0.4460 0.4500 0.4530 0.4550
7.149297 0.4460 0.4340 0.4170 0.4070 0.3810
7.183000 0.3530 0.3400 0.3260 0.3070 0.2970
7.217297 0.2860 0.2850 0.2830 0.2850 0.2920
7.252000 0.3070 0.3280 0.3670 0.3810 0.3960
7.286297 0.4080 0.4260 0.4460 0.4620 0.4670
7.320000 0.4840 0.4960 0.5050 0.5120 0.5150
7.354297 0.5080 0.5050 0.5000 0.4910 0.4810
7.389000 0.4690 0.4670 0.4630 0.4500 0.4360
7.423297 0.4310 0.4290 0.4240 0.4220 0.4240
7.457000 0.4310 0.4460 0.4570 0.4690 0.4810
7.491297 0.4960 0.5060 0.5200 0.5300 0.5390
7.526000 0.5460 0.5490 0.5510 0.5510 0.5580
7.560297 0.5610 0.5670 0.5730 0.5790 0.5820
7.595000 0.5870 0.5960 0.6010 0.6090 0.6150
7.629297 0.6200 0.6270 0.6300 0.6350 0.6390
7.663000 0.6420 0.6460 0.6490 0.6540 0.6610
7.697297 0.6630 0.6660 0.6710 0.6750 0.6750
7.732000 0.6730 0.6730 0.6710 0.6700 0.6680
7.766297 0.6680 0.6660 0.6630 0.6610 0.6580
7.800000 0.6540 0.6510 0.6460 0.6460 0.6390
7.834297 0.6350 0.6300 0.6250 0.6200 0.6150
7.869000 0.6110 0.6090 0.6080 0.6060 0.6060
7.903297 0.6040 0.6040 0.6060 0.6090 0.6150
7.937000 0.6200 0.6270 0.6320 0.6350 0.6350
7.971297 0.6370 0.6370 0.6390 0.6390 0.6370
8.006000 0.6350 0.6280 0.6210 0.6180 0.6110
8.040297 0.6040 0.5990 0.5960 0.5890 0.5870
8.074000 0.5850 0.5840 0.5820 0.5820 0.5850
8.108297 0.5890 0.5960 0.5970 0.6010 0.6060
8.143000 0.6110 0.6160 0.6200 0.6210 0.6210
8.177297 0.6230 0.6250 0.6270 0.6280 0.6300
8.212000 0.6320 0.6350 0.6350 0.6390 0.6440
8.246297 0.6470 0.6510 0.6580 0.6610 0.6610
8.280000 0.6630 0.6630 0.6590 0.6510 0.6470
8.314297 0.6390 0.6250 0.6130 0.6040 0.5890
8.349000 0.5750 0.5650 0.5490 0.5390 0.5250
8.383297 0.5220 0.5050 0.4940 0.4770 0.4670
8.417000 0.4580 0.4510 0.4450 0.4270 0.4170
8.451297 0.4030 0.3960 0.3900 0.3840 0.3810
8.486000 0.3780 0.3740 0.3710 0.3650 0.3570
8.520297 0.3470 0.3360 0.3310 0.3260 0.3100
8.554000 0.2980 0.2950 0.2740 0.2560 0.2380
8.588297 0.2210 0.2040 0.1950 0.1730 0.1630
8.623000 0.1520 0.1460 0.1400 0.1370 0.1320
8.657297 0.1280 0.1280 0.1250 0.1250 0.1230
8.691000 0.1230 0.1210 0.1210 0.1200 0.1200
8.725297 0.1200 0.1200 0.1200 0.1200 0.1200
8.760000 0.1200 0.1230 0.1270 0.1280 0.1350
8.794297 0.1390 0.1460 0.1520 0.1660 0.1660
8.829000 0.1700 0.1750 0.1800 0.1870 0.1950
8.863297 0.1990 0.2020 0.2070 0.2090 0.2110
8.897000 0.2130 0.2140 0.2160 0.2160 0.2160
8.931297 0.2160 0.2160 0.2160 0.2140 0.2110
8.966000 0.2070 0.1990 0.1970 0.1920 0.1890
9.000297 0.1850 0.1820 0.1780 0.1750 0.1730
9.034000 0.1710 0.1700 0.1680 0.1660 0.1640
9.068297 0.1630 0.1630 0.1630 0.1630 0.1630
9.103000 0.1630 0.1640 0.1680 0.1700 0.1750
9.137297 0.1780 0.1830 0.1870 0.1950 0.1950
9.171000 0.1990 0.2010 0.2040 0.2060 0.2110
9.205297 0.2160 0.2190 0.2250 0.2280 0.2370
9.240000 0.2450 0.2540 0.2660 0.2740 0.2880
9.274297 0.2970 0.3140 0.3240 0.3570 0.3720
9.309000 0.3840 0.3980 0.4120 0.4260 0.4450
9.343297 0.4550 0.4690 0.4770 0.4870 0.4960
9.377000 0.5050 0.5180 0.5320 0.5440 0.5540
9.411297 0.5670 0.5720 0.5750 0.5840 0.5870
9.446000 0.5960 0.5970 0.5990 0.6040 0.6090
9.480297 0.6110 0.6160 0.6160 0.6180 0.6200
9.514000 0.6200 0.6200 0.6200 0.6180 0.6150
9.548297 0.6110 0.6080 0.5990 0.5970 0.5920
9.583000 0.5870 0.5790 0.5700 0.5650 0.5580
9.617297 0.5490 0.5460 0.5340 0.5270 0.5180
9.651000 0.5120 0.5030 0.4980 0.4940 0.4870
9.685297 0.4790 0.4740 0.4670 0.4600 0.4550
9.720000 0.4500 0.4460 0.4390 0.4360 0.4320
9.754297 0.4290 0.4270 0.4270 0.4260 0.4260
9.788000 0.4260 0.4260 0.4260 0.4290 0.4320
9.822297 0.4340 0.4380 0.4450 0.4480 0.4550
9.857000 0.4620 0.4700 0.4740 0.4840 0.4940
9.891297 0.4960 0.5050 0.5130 0.5220 0.5270
9.926000 0.5320 0.5390 0.5440 0.5480 0.5490
9.960297 0.5510 0.5530 0.5540 0.5540 0.5540
9.994000 0.5540 0.5540 0.5540 0.5530 0.5530
10.028297 0.5510 0.5490 0.5490 0.5480 0.5440
10.063000 0.5410 0.5370 0.5300 0.5290 0.5240
10.097297 0.5180 0.5100 0.5060 0.4980 0.4960
10.131000 0.4860 0.4810 0.4740 0.4670 0.4600
10.165297 0.4550 0.4510 0.4430 0.4310 0.4200
10.200000 0.4140 0.4070 0.3980 0.3960 0.3880
10.234297 0.3810 0.3760 0.3690 0.3600 0.3570
10.268000 0.3500 0.3480 0.3450 0.3360 0.3350
10.302297 0.3310 0.3280 0.3230 0.3190 0.3160
10.337000 0.3100 0.3090 0.3070 0.3050 0.3040
10.371297 0.3040 0.3040 0.3040 0.3040 0.3050
10.405000 0.3070 0.3070 0.3090 0.3090 0.3100
10.439297 0.3120 0.3120 0.3120 0.3120 0.3100
10.474000 0.3100 0.3100 0.3100 0.3100 0.3100
10.508297 0.3160 0.3190 0.3230 0.3280 0.3310
10.543000 0.3400 0.3450 0.3480 0.3550 0.3590
10.577297 0.3640 0.3690 0.3740 0.3790 0.3880
10.611000 0.3980 0.4030 0.4070 0.4150 0.4190
10.645297 0.4260 0.4320 0.4390 0.4460 0.4550
10.680000 0.4580 0.4630 0.4690 0.4700 0.4720
10.714297 0.4770 0.4810 0.4810 0.4820 0.4840
10.748000 0.4840 0.4840 0.4840 0.4860 0.4870
10.782297 0.4870 0.4930 0.4960 0.5000 0.5120
10.817000 0.5240 0.5250 0.5290 0.5370 0.5460
10.851297 0.5540 0.5600 0.5650 0.5700 0.5770
10.885000 0.5840 0.5890 0.5890 0.5910 0.5910
10.919297 0.5910 0.5910 0.5890 0.5870 0.5800
10.954000 0.5730 0.5670 0.5610 0.5530 0.5440
10.988297 0.5360 0.5270 0.5180 0.5100 0.5000
11.023000 0.4960 0.4860 0.4790 0.4740 0.4700
11.057297 0.4650 0.4630 0.4620 0.4600 0.4600
11.091000 0.4600 0.4620 0.4650 0.4690 0.4740
11.125297 0.4750 0.4810 0.4860 0.4890 0.4980
11.160000 0.5050 0.5150 0.5200 0.5270 0.5340
11.194297 0.5460 0.5540 0.5610 0.5680 0.5750
11.228000 0.5790 0.5850 0.5970 0.5970 0.6010
11.262297 0.6040 0.6090 0.6130 0.6180 0.6210
11.297000 0.6230 0.6250 0.6270 0.6280 0.6270
11.331297 0.6270 0.6270 0.6270 0.6250 0.6250
11.365000 0.6210 0.6200 0.6180 0.6160 0.6090
11.399297 0.6060 0.6040 0.6010 0.5990 0.5960
11.434000 0.5920 0.5870 0.5850 0.5790 0.5770
11.468297 0.5750 0.5750 0.5750 0.5750 0.5750
11.502000 0.5770 0.5790 0.5800 0.5820 0.5850
11.536297 0.5850 0.5890 0.5910 0.5920 0.5940
11.571000 0.5960 0.5960 0.5970 0.5970 0.5990
11.605297 0.5990 0.6030 0.6060 0.6080 0.6080
11.640000 0.6080 0.6080 0.6080 0.6080 0.6060
11.674297 0.6030 0.5970 0.5970 0.5960 0.5960
11.708000 0.5940 0.5890 0.5870 0.5850 0.5840
11.742297 0.5840 0.5820 0.5820 0.5820 0.5820
11.777000 0.5820 0.5840 0.5870 0.5890 0.5910
11.811297 0.5920 0.5920 0.5920 0.5940 0.5940
11.845000 0.5920 0.5910 0.5890 0.5870 0.5840
11.879297 0.5800 0.5770 0.5750 0.5700 0.5700
11.914000 0.5680 0.5670 0.5670 0.5670 0.5670
11.948297 0.5680 0.5700 0.5750 0.5790 0.5840
11.982000 0.5920 0.5960 0.5990 0.6060 0.6110
12.016297 0.6180 0.6230 0.6230 0.6270 0.6300
12.051000 0.6350 0.6370 0.6400 0.6440 0.6460
12.085297 0.6490 0.6510 0.6520 0.6520 0.6540
12.119000 0.6560 0.6560 0.6560 0.6580 0.6590
12.153297 0.6590 0.6590 0.6590 0.6590 0.6590
12.188000 0.6580 0.6560 0.6490 0.6460 0.6460
12.222297 0.6440 0.6420 0.6400 0.6400 0.6390
12.257000 0.6390 0.6390 0.6390 0.6390 0.6390
12.291297 0.6400 0.6440 0.6460 0.6460 0.6490
12.325000 0.6520 0.6540 0.6580 0.6590 0.6640
12.359297 0.6730 0.6750 0.6800 0.6850 0.6850
12.394000 0.6890 0.6900 0.6920 0.6940 0.6950
12.428297 0.6970 0.6990 0.7010 0.7020 0.7040
12.462000 0.7060 0.7070 0.7070 0.7130 0.7140
12.496297 0.7160 0.7180 0.7190 0.7210 0.7230
12.531000 0.7230 0.7250 0.7260 0.7280 0.7300
12.565297 0.7300 0.7300 0.7330 0.7350 0.7370
12.599000 0.7370 0.7370 0.7370 0.7380 0.7380
12.633297 0.7400 0.7400 0.7430 0.7430 0.7430
12.668000 0.7430 0.7430 0.7450 0.7450 0.7450
12.702297 0.7450 0.7450 0.7450 0.7470 0.7470
12.737000 0.7490 0.7490 0.7490 0.7500 0.7500
12.771297 0.7500 0.7500 0.7500 0.7500 0.7500
12.805000 0.7500 0.7500 0.7500 0.7500 0.7500
12.839297 0.7500 0.7500 0.7490 0.7500 0.7500
12.874000 0.7500 0.7500 0.7490 0.7490 0.7470
12.908297 0.7470 0.7470 0.7450 0.7430 0.7430
12.942000 0.7420 0.7400 0.7400 0.7380 0.7380
12.976297 0.7380 0.7370 0.7350 0.7310 0.7300
13.011000 0.7260 0.7250 0.7190 0.7160 0.7110
13.045297 0.7090 0.7010 0.6990 0.6970 0.6950
13.079000 0.6900 0.6890 0.6870 0.6870 0.6850
13.113297 0.6850 0.6850 0.6850 0.6870 0.6870
13.148000 0.6890 0.6950 0.6970 0.7040 0.7090
13.182297 0.7140 0.7190 0.7230 0.7250 0.7280
13.216000 0.7310 0.7350 0.7370 0.7400 0.7470
13.250297 0.7490 0.7500 0.7520 0.7560 0.7560
13.285000 0.7570 0.7570 0.7570 0.7590 0.7590
13.319297 0.7610 0.7610 0.7610 0.7610 0.7590
13.354000 0.7590 0.7610 0.7610 0.7610 0.7610
13.388297 0.7610 0.7610 0.7620 0.7620 0.7620
13.422000 0.7610 0.7610 0.7610 0.7610 0.7610
13.456297 0.7610 0.7610 0.7610 0.7590 0.7590
13.491000 0.7610 0.7610 0.7610 0.7620 0.7640
13.525297 0.7640 0.7640 0.7620 0.7610 0.7610
13.559000 0.7590 0.7590 0.7610 0.7610 0.7610
13.593297 0.7610 0.7610 0.7610 0.7610 0.7620
13.628000 0.7620 0.7620 0.7610 0.7610 0.7590
13.662297 0.7590 0.7590 0.7590 0.7590 0.7570
13.696000 0.7560 0.7560 0.7560 0.7560 0.7560
13.730297 0.7560 0.7570 0.7560 0.7560 0.7560
13.765000 0.7560 0.7560 0.7560 0.7540 0.7540
13.799297 0.7540 0.7540 0.7540 0.7520 0.7500
13.833000 0.7500 0.7500 0.7500 0.7500 0.7500
13.867297 0.7500 0.7500 0.7500 0.7500 0.7500
13.902000 0.7500 0.7520 0.7520 0.7520 0.7520
13.936297 0.7500 0.7500 0.7500 0.7490 0.7490
13.971000 0.7470 0.7470 0.7450 0.7450 0.7450
14.005297 0.7450 0.7450 0.7450 0.7450 0.7450
14.039000 0.7450 0.7430 0.7420 0.7420 0.7400
14.073297 0.7400 0.7380 0.7380 0.7380 0.7370
14.108000 0.7350 0.7350 0.7350 0.7330 0.7310
14.142297 0.7310 0.7310 0.7300 0.7280 0.7280
14.176000 0.7280 0.7260 0.7260 0.7260 0.7250
14.210297 0.7250 0.7250 0.7250 0.7210 0.7210
14.245000 0.7190 0.7180 0.7180 0.7180 0.7180
14.279297 0.7180 0.7160 0.7140 0.7140 0.7130
14.313000 0.7130 0.7110 0.7090 0.7090 0.7070
14.347297 0.7070 0.7070 0.7060 0.7060 0.7060
14.382000 0.7020 0.7010 0.7010 0.6990 0.6970
14.416297 0.6970 0.6970 0.6950 0.6950 0.6940
14.451000 0.6940 0.6920 0.6920 0.6900 0.6900
14.485297 0.6900 0.6900 0.6900 0.6900 0.6900
14.519000 0.6900 0.6900 0.6900 0.6900 0.6900
14.553297 0.6900 0.6900 0.6900 0.6900 0.6900
14.588000 0.6890 0.6870 0.6870 0.6870 0.6850
14.622297 0.6850 0.6830 0.6830 0.6820 0.6820
14.656000 0.6820 0.6820 0.6820 0.6820 0.6820
14.690297 0.6820 0.6820 0.6820 0.6820 0.6820
14.725000 0.6820 0.6820 0.6820 0.6820 0.6820
14.759297 0.6820 0.6820 0.6820 0.6800 0.6800
14.793000 0.6800 0.6780 0.6780 0.6760 0.6750
14.827297 0.6730 0.6710 0.6710 0.6700 0.6680
14.862000 0.6680 0.6660 0.6580 0.6510 0.6510
14.896297 0.6490 0.6460 0.6420 0.6400 0.6390
14.930000 0.6370 0.6370 0.6350 0.6350 0.6350
14.964297 0.6350 0.6350 0.6350 0.6350 0.6350
14.999000 0.6340 0.6300 0.6280 0.6280 0.6270
15.033297 0.6270 0.6250 0.6230 0.6200 0.6200
15.068000 0.6180 0.6180 0.6180 0.6180 0.6180
15.102297 0.6180 0.6180 0.6180 0.6200 0.6210
15.136000 0.6210 0.6230 0.6230 0.6250 0.6270
15.170297 0.6280 0.6300 0.6300 0.6320 0.6340
15.205000 0.6350 0.6370 0.6370 0.6390 0.6400
15.239297 0.6420 0.6420 0.6440 0.6440 0.6440
15.273000 0.6460 0.6460 0.6460 0.6460 0.6460
15.307297 0.6460 0.6440 0.6440 0.6440 0.6420
15.342000 0.6420 0.6420 0.6420 0.6420 0.6440
15.376297 0.6440 0.6440 0.6440 0.6460 0.6460
15.410000 0.6460 0.6470 0.6470 0.6470 0.6470
15.444297 0.6470 0.6460 0.6460 0.6460 0.6460
15.479000 0.6440 0.6440 0.6440 0.6440 0.6420
15.513297 0.6420 0.6400 0.6400 0.6400 0.6400
15.548000 0.6400 0.6400 0.6400 0.6400 0.6400
15.582297 0.6400 0.6400 0.6400 0.6400 0.6390
15.616000 0.6390 0.6390 0.6390 0.6390 0.6390
15.650297 0.6390 0.6390 0.6390 0.6370 0.6370
15.685000 0.6370 0.6370 0.6370 0.6370 0.6350
15.719297 0.6340 0.6320 0.6320 0.6300 0.6300
15.753000 0.6300 0.6300 0.6300 0.6300 0.6300
15.787297 0.6300 0.6300 0.6280 0.6280 0.6270
15.822000 0.6270 0.6270 0.6270 0.6270 0.6270
15.856297 0.6270 0.6270 0.6270 0.6270 0.6270
##END=
