##TITLE=MALONONITRILE
$$ E.K. (W.L.) NO. 3076
##JCAMP-DX=4.24
##DATA TYPE=INFRARED SPECTRUM
##CLASS=COBLENTZ
##ORIGIN=WYANDOTTE CHEMICALS CORP., WYANDOTTE, MICHIGAN, USA
##OWNER=COBLENTZ SOCIETY
Collection (C) 2018 copyright by the U.S. Secretary of Commerce
on behalf of the United States of America. All rights reserved.
##DATE=Not specified, most likely prior to 1970
##CAS REGISTRY NO=109-77-3
##MOLFORM=C3 H2 N2
##MP=30-32 C
##SOURCE REFERENCE=COBLENTZ NO. 168
##$NIST SOURCE=COBLENTZ
##$NIST IMAGE=cob168
##SPECTROMETER/DATA SYSTEM=Not specified, most likely a prism, grating, or hybrid spectrometer.
##STATE=LIQUID
##PATH LENGTH=0.0015 CM
##SAMPLING PROCEDURE=TRANSMISSION
##RESOLUTION=4
##DATA PROCESSING=DIGITIZED BY NIST FROM HARD COPY
##XUNITS=MICROMETERS
##YUNITS=TRANSMITTANCE
##XFACTOR=1.000000
##YFACTOR=1
##DELTAX=000.006452
##FIRSTX=2.052
##LASTX=15.7742
##FIRSTY=0.962
##MAXX=15.7742
##MINX=2.052
##MAXY=0.972
##MINY=0.1
##NPOINTS=2128
##XYDATA=(X++(Y..Y))
2.052000 0.9620 0.9620 0.9640 0.9670 0.9670
2.084273 0.9720 0.9720 0.9690 0.9690 0.9670
2.116000 0.9670 0.9670 0.9670 0.9690 0.9690
2.148273 0.9690 0.9690 0.9670 0.9670 0.9640
2.181000 0.9610 0.9570 0.9540 0.9440 0.9040
2.213273 0.8790 0.8470 0.8130 0.8130 0.8700
2.245000 0.8730 0.8960 0.8960 0.8910 0.8910
2.277273 0.8910 0.8910 0.8840 0.8620 0.8370
2.310000 0.8130 0.8110 0.8470 0.8700 0.8940
2.342273 0.9230 0.9330 0.9360 0.9380 0.9380
2.374000 0.9380 0.9380 0.9380 0.9390 0.9410
2.406273 0.9430 0.9440 0.9460 0.9430 0.9410
2.439000 0.9380 0.9330 0.9300 0.9300 0.9330
2.471273 0.9350 0.9330 0.9300 0.9250 0.9170
2.503000 0.9100 0.9050 0.9040 0.8960 0.8920
2.535273 0.8890 0.8870 0.8890 0.9000 0.9090
2.568000 0.9150 0.9230 0.9360 0.9390 0.9390
2.600273 0.9380 0.9310 0.9250 0.9260 0.9360
2.632000 0.9460 0.9540 0.9560 0.9560 0.9520
2.664273 0.9430 0.9300 0.9170 0.8960 0.8840
2.697000 0.8660 0.8550 0.8520 0.8490 0.8470
2.729273 0.8580 0.8660 0.8710 0.8710 0.8730
2.761000 0.8730 0.8750 0.8750 0.8750 0.8750
2.793273 0.8750 0.8760 0.8760 0.8780 0.8810
2.826000 0.8840 0.8910 0.8940 0.8990 0.9020
2.858273 0.9050 0.9090 0.9120 0.9120 0.9130
2.890000 0.9150 0.9180 0.9180 0.9200 0.9220
2.922273 0.9220 0.9200 0.9200 0.9180 0.9180
2.955000 0.9170 0.9180 0.9200 0.9180 0.9170
2.987273 0.9150 0.9130 0.9100 0.9070 0.8990
3.019000 0.8920 0.8830 0.8760 0.8680 0.8620
3.051273 0.8530 0.8500 0.8470 0.8310 0.8110
3.084000 0.8010 0.8010 0.8110 0.8370 0.8580
3.116273 0.8620 0.8570 0.8530 0.8490 0.8390
3.148000 0.8100 0.7640 0.7300 0.7300 0.7620
3.180273 0.7800 0.7880 0.7980 0.7980 0.7900
3.213000 0.7750 0.7620 0.7300 0.7190 0.7090
3.245273 0.6980 0.6880 0.6720 0.6540 0.6260
3.277000 0.6020 0.5860 0.5680 0.5510 0.5350
3.309273 0.4800 0.4350 0.3870 0.2510 0.2120
3.342000 0.1730 0.1160 0.1050 0.1030 0.1030
3.374273 0.1030 0.1050 0.1070 0.1100 0.1200
3.406000 0.1420 0.1600 0.1810 0.2120 0.2850
3.438273 0.3290 0.3700 0.4430 0.4750 0.5030
3.471000 0.5250 0.5430 0.5760 0.5940 0.6070
3.503273 0.6280 0.6460 0.6600 0.6720 0.6830
3.535000 0.6930 0.7190 0.7330 0.7430 0.7540
3.567273 0.7610 0.7670 0.7770 0.7840 0.7870
3.600000 0.7900 0.7950 0.8030 0.8160 0.8360
3.632273 0.8470 0.8620 0.8650 0.8660 0.8650
3.665000 0.8660 0.8700 0.8730 0.8710 0.8710
3.697273 0.8710 0.8710 0.8710 0.8730 0.8790
3.729000 0.8830 0.8830 0.8760 0.8710 0.8660
3.761273 0.8520 0.8360 0.8180 0.7740 0.7720
3.794000 0.7480 0.6990 0.6990 0.7220 0.7350
3.826273 0.7460 0.7620 0.7660 0.7670 0.7710
3.858000 0.7800 0.7920 0.8080 0.8240 0.8360
3.890273 0.8440 0.8620 0.8660 0.8680 0.8660
3.923000 0.8660 0.8650 0.8620 0.8530 0.8450
3.955273 0.8340 0.8290 0.8260 0.8240 0.8190
3.987000 0.8190 0.8370 0.8440 0.8630 0.8650
4.019273 0.8730 0.8750 0.8760 0.8810 0.8870
4.052000 0.8990 0.9040 0.9040 0.9020 0.9000
4.084273 0.8990 0.8970 0.8960 0.8940 0.8910
4.116000 0.8890 0.8860 0.8840 0.8840 0.8830
4.148273 0.8840 0.8860 0.8870 0.8890 0.8970
4.181000 0.8990 0.9000 0.9020 0.9020 0.9000
4.213273 0.8990 0.8960 0.8920 0.8910 0.8860
4.245000 0.8780 0.8710 0.8680 0.8580 0.8580
4.277273 0.8620 0.8650 0.8680 0.8700 0.8700
4.310000 0.8700 0.8700 0.8700 0.8710 0.8710
4.342273 0.8650 0.8580 0.8520 0.8390 0.8240
4.374000 0.8010 0.7460 0.7060 0.6650 0.6000
4.406273 0.5530 0.5340 0.5140 0.4870 0.4820
4.439000 0.4610 0.4020 0.3420 0.2620 0.1830
4.471273 0.1830 0.3000 0.3240 0.3550 0.4910
4.503000 0.6470 0.6960 0.7820 0.8110 0.8310
4.535273 0.8360 0.8450 0.8680 0.8750 0.8780
4.568000 0.8750 0.8700 0.8680 0.8660 0.8700
4.600273 0.8810 0.8890 0.8910 0.8920 0.8990
4.632000 0.9040 0.9070 0.9100 0.9120 0.9150
4.664273 0.9180 0.9180 0.9200 0.9200 0.9220
4.697000 0.9220 0.9250 0.9250 0.9220 0.9170
4.729273 0.9170 0.9200 0.9220 0.9260 0.9280
4.761000 0.9260 0.9280 0.9330 0.9330 0.9300
4.793273 0.9300 0.9310 0.9360 0.9380 0.9390
4.826000 0.9380 0.9390 0.9390 0.9390 0.9410
4.858273 0.9390 0.9390 0.9380 0.9350 0.9330
4.890000 0.9330 0.9330 0.9350 0.9360 0.9360
4.922273 0.9360 0.9360 0.9360 0.9360 0.9360
4.955000 0.9360 0.9360 0.9360 0.9360 0.9350
4.987273 0.9350 0.9360 0.9360 0.9360 0.9360
5.019000 0.9360 0.9360 0.9350 0.9330 0.9330
5.051273 0.9310 0.9280 0.9230 0.9220 0.9230
5.084000 0.9300 0.9310 0.9350 0.9330 0.9300
5.116273 0.9300 0.9310 0.9330 0.9350 0.9350
5.148000 0.9330 0.9310 0.9330 0.9330 0.9300
5.180273 0.9260 0.9250 0.9220 0.9220 0.9280
5.213000 0.9310 0.9300 0.9280 0.9250 0.9220
5.245273 0.9200 0.9220 0.9280 0.9310 0.9300
5.277000 0.9280 0.9280 0.9280 0.9260 0.9250
5.309273 0.9220 0.9180 0.9180 0.9220 0.9280
5.342000 0.9280 0.9260 0.9250 0.9230 0.9220
5.374273 0.9170 0.9170 0.9200 0.9260 0.9280
5.406000 0.9280 0.9300 0.9300 0.9300 0.9250
5.438273 0.9100 0.9120 0.9260 0.9330 0.9350
5.471000 0.9300 0.9250 0.9220 0.9170 0.9170
5.503273 0.9170 0.9200 0.9200 0.9150 0.9020
5.535000 0.8970 0.8910 0.8870 0.8860 0.8830
5.567273 0.8760 0.8700 0.8660 0.8650 0.8630
5.600000 0.8660 0.8730 0.8750 0.8750 0.8760
5.632273 0.8780 0.8780 0.8760 0.8750 0.8750
5.665000 0.8750 0.8750 0.8660 0.8530 0.8490
5.697273 0.8440 0.8390 0.8360 0.8340 0.8320
5.729000 0.8360 0.8420 0.8390 0.8340 0.8310
5.761273 0.8240 0.8210 0.8190 0.8210 0.8230
5.794000 0.8230 0.8260 0.8340 0.8450 0.8660
5.826273 0.8780 0.8780 0.8730 0.8710 0.8700
5.858000 0.8680 0.8680 0.8680 0.8700 0.8730
5.890273 0.8750 0.8750 0.8750 0.8750 0.8730
5.923000 0.8730 0.8730 0.8760 0.8760 0.8730
5.955273 0.8700 0.8650 0.8650 0.8700 0.8750
5.987000 0.8780 0.8790 0.8790 0.8790 0.8780
6.019273 0.8760 0.8750 0.8730 0.8710 0.8710
6.052000 0.8700 0.8660 0.8580 0.8500 0.8490
6.084273 0.8450 0.8400 0.8360 0.8310 0.8260
6.116000 0.8230 0.8190 0.8110 0.8060 0.8030
6.148273 0.8010 0.8030 0.8110 0.8230 0.8310
6.181000 0.8360 0.8420 0.8450 0.8580 0.8630
6.213273 0.8660 0.8700 0.8710 0.8730 0.8730
6.245000 0.8760 0.8780 0.8780 0.8780 0.8760
6.277273 0.8730 0.8710 0.8680 0.8650 0.8620
6.310000 0.8620 0.8580 0.8520 0.8490 0.8440
6.342273 0.8260 0.8140 0.8050 0.8030 0.8000
6.374000 0.7980 0.7980 0.7980 0.8000 0.8000
6.406273 0.8010 0.8030 0.8110 0.8140 0.8160
6.439000 0.8180 0.8180 0.8190 0.8240 0.8290
6.471273 0.8340 0.8370 0.8420 0.8470 0.8530
6.503000 0.8570 0.8580 0.8580 0.8570 0.8550
6.535273 0.8530 0.8550 0.8550 0.8550 0.8580
6.568000 0.8580 0.8530 0.8500 0.8500 0.8490
6.600273 0.8470 0.8490 0.8470 0.8450 0.8420
6.632000 0.8360 0.8320 0.8310 0.8310 0.8260
6.664273 0.8190 0.8180 0.8160 0.8160 0.8140
6.697000 0.8110 0.8050 0.7970 0.7920 0.7870
6.729273 0.7820 0.7770 0.7740 0.7710 0.7710
6.761000 0.7720 0.7720 0.7710 0.7670 0.7620
6.793273 0.7620 0.7560 0.7530 0.7510 0.7460
6.826000 0.7450 0.7500 0.7530 0.7530 0.7500
6.858273 0.7460 0.7430 0.7410 0.7400 0.7380
6.890000 0.7350 0.7320 0.7250 0.7190 0.7170
6.922273 0.7120 0.7090 0.7070 0.7020 0.6990
6.955000 0.6980 0.6940 0.6810 0.6730 0.6630
6.987273 0.6520 0.6420 0.6310 0.6200 0.6100
7.019000 0.6000 0.5890 0.5640 0.5430 0.5210
7.051273 0.4870 0.4570 0.4280 0.4120 0.3940
7.084000 0.3520 0.2930 0.2560 0.2170 0.1650
7.116273 0.1550 0.1330 0.1260 0.1230 0.1160
7.148000 0.1120 0.1100 0.1080 0.1050 0.1030
7.180273 0.1020 0.1000 0.1000 0.1020 0.1080
7.213000 0.1230 0.1340 0.1550 0.1760 0.2010
7.245273 0.2250 0.2460 0.2950 0.3270 0.3570
7.277000 0.3860 0.4350 0.4560 0.4720 0.4830
7.309273 0.4980 0.5110 0.5240 0.5350 0.5480
7.342000 0.5770 0.5870 0.5920 0.5950 0.5990
7.374273 0.6050 0.6120 0.6200 0.6250 0.6340
7.406000 0.6390 0.6410 0.6440 0.6470 0.6520
7.438273 0.6540 0.6570 0.6600 0.6630 0.6630
7.471000 0.6670 0.6670 0.6670 0.6670 0.6630
7.503273 0.6600 0.6520 0.6460 0.6360 0.6290
7.535000 0.6160 0.6030 0.5860 0.5790 0.5740
7.567273 0.5730 0.5690 0.5680 0.5660 0.5680
7.600000 0.5940 0.6070 0.6180 0.6310 0.6390
7.632273 0.6520 0.6620 0.6720 0.6800 0.6850
7.665000 0.6890 0.6940 0.7110 0.7120 0.7120
7.697273 0.7070 0.7090 0.7090 0.7140 0.7140
7.729000 0.7110 0.7010 0.6990 0.6980 0.6940
7.761273 0.6890 0.6860 0.6830 0.6760 0.6730
7.794000 0.6730 0.6760 0.6760 0.6750 0.6750
7.826273 0.6750 0.6730 0.6700 0.6630 0.6590
7.858000 0.6570 0.6540 0.6520 0.6500 0.6490
7.890273 0.6440 0.6390 0.6330 0.6260 0.6250
7.923000 0.6180 0.6180 0.6200 0.6290 0.6420
7.955273 0.6600 0.6670 0.6810 0.6930 0.7070
7.987000 0.7110 0.7140 0.7150 0.7190 0.7200
8.019273 0.7200 0.7170 0.7170 0.7150 0.7150
8.052000 0.7140 0.7090 0.7060 0.7010 0.6980
8.084273 0.6940 0.6910 0.6890 0.6860 0.6800
8.116000 0.6700 0.6670 0.6630 0.6500 0.6470
8.148273 0.6440 0.6370 0.6330 0.6210 0.6180
8.181000 0.6160 0.6150 0.6150 0.6160 0.6230
8.213273 0.6340 0.6470 0.6590 0.6720 0.6780
8.245000 0.6860 0.6980 0.7200 0.7300 0.7380
8.277273 0.7430 0.7530 0.7590 0.7670 0.7720
8.310000 0.7790 0.7840 0.7920 0.7980 0.8000
8.342273 0.8010 0.8030 0.8130 0.8210 0.8240
8.374000 0.8260 0.8270 0.8290 0.8310 0.8360
8.406273 0.8370 0.8400 0.8420 0.8420 0.8420
8.439000 0.8420 0.8450 0.8550 0.8570 0.8570
8.471273 0.8570 0.8570 0.8570 0.8570 0.8600
8.503000 0.8600 0.8600 0.8600 0.8600 0.8600
8.535273 0.8600 0.8600 0.8600 0.8620 0.8620
8.568000 0.8630 0.8630 0.8650 0.8650 0.8660
8.600273 0.8680 0.8680 0.8700 0.8700 0.8730
8.632000 0.8730 0.8750 0.8760 0.8780 0.8790
8.664273 0.8810 0.8830 0.8840 0.8860 0.8890
8.697000 0.8910 0.8920 0.8940 0.8970 0.8990
8.729273 0.9000 0.9020 0.9020 0.9050 0.9070
8.761000 0.9070 0.9090 0.9100 0.9150 0.9180
8.793273 0.9220 0.9250 0.9230 0.9220 0.9180
8.826000 0.9180 0.9220 0.9230 0.9250 0.9250
8.858273 0.9250 0.9230 0.9220 0.9220 0.9220
8.890000 0.9220 0.9230 0.9250 0.9230 0.9220
8.922273 0.9200 0.9180 0.9170 0.9150 0.9130
8.955000 0.9130 0.9130 0.9130 0.9120 0.9090
8.987273 0.9090 0.9100 0.9130 0.9120 0.9130
9.019000 0.9130 0.9130 0.9170 0.9170 0.9200
9.051273 0.9200 0.9150 0.9120 0.9090 0.9090
9.084000 0.9120 0.9120 0.9130 0.9150 0.9150
9.116273 0.9130 0.9120 0.9100 0.9070 0.9050
9.148000 0.9070 0.9050 0.9040 0.9020 0.9020
9.180273 0.9000 0.9000 0.9000 0.8990 0.8990
9.213000 0.8970 0.8970 0.8970 0.8960 0.8940
9.245273 0.8920 0.8910 0.8910 0.8890 0.8870
9.277000 0.8870 0.8910 0.8890 0.8840 0.8830
9.309273 0.8810 0.8760 0.8760 0.8810 0.8810
9.342000 0.8840 0.8830 0.8810 0.8810 0.8780
9.374273 0.8730 0.8680 0.8700 0.8680 0.8680
9.406000 0.8660 0.8630 0.8600 0.8650 0.8630
9.438273 0.8620 0.8570 0.8520 0.8520 0.8580
9.471000 0.8580 0.8550 0.8530 0.8500 0.8530
9.503273 0.8580 0.8620 0.8620 0.8600 0.8580
9.535000 0.8580 0.8580 0.8600 0.8580 0.8570
9.567273 0.8550 0.8530 0.8520 0.8530 0.8530
9.600000 0.8500 0.8470 0.8450 0.8450 0.8450
9.632273 0.8450 0.8490 0.8490 0.8450 0.8390
9.665000 0.8370 0.8360 0.8320 0.8320 0.8320
9.697273 0.8290 0.8270 0.8270 0.8270 0.8290
9.729000 0.8290 0.8270 0.8260 0.8260 0.8230
9.761273 0.8210 0.8210 0.8190 0.8160 0.8160
9.794000 0.8190 0.8190 0.8180 0.8160 0.8130
9.826273 0.8100 0.8050 0.8050 0.8010 0.8010
9.858000 0.8010 0.8000 0.7970 0.7900 0.7850
9.890273 0.7840 0.7820 0.7770 0.7750 0.7710
9.923000 0.7660 0.7500 0.7430 0.7400 0.7380
9.955273 0.7320 0.7220 0.7120 0.7010 0.6960
9.987000 0.6890 0.6760 0.6600 0.6420 0.6200
10.019273 0.5940 0.5640 0.5470 0.5290 0.4870
10.052000 0.4390 0.4130 0.3860 0.3470 0.3080
10.084273 0.2720 0.2580 0.2410 0.2140 0.1910
10.116000 0.1720 0.1590 0.1500 0.1420 0.1330
10.148273 0.1290 0.1280 0.1280 0.1290 0.1340
10.181000 0.1390 0.1460 0.1490 0.1620 0.1750
10.213273 0.1930 0.2120 0.2330 0.2790 0.3050
10.245000 0.3290 0.3550 0.3810 0.4310 0.4540
10.277273 0.4770 0.4960 0.5160 0.5300 0.5480
10.310000 0.5760 0.5890 0.6000 0.6100 0.6180
10.342273 0.6250 0.6290 0.6360 0.6440 0.6470
10.374000 0.6520 0.6570 0.6600 0.6620 0.6650
10.406273 0.6680 0.6700 0.6700 0.6680 0.6670
10.439000 0.6650 0.6630 0.6600 0.6570 0.6540
10.471273 0.6490 0.6460 0.6390 0.6340 0.6280
10.503000 0.6210 0.6130 0.6050 0.5950 0.5860
10.535273 0.5740 0.5630 0.5500 0.5430 0.5350
10.568000 0.5210 0.5030 0.4880 0.4740 0.4540
10.600273 0.4430 0.4250 0.4050 0.3940 0.3830
10.632000 0.3580 0.3360 0.3160 0.2970 0.2820
10.664273 0.2560 0.2460 0.2370 0.2300 0.2220
10.697000 0.2170 0.2140 0.2090 0.2060 0.2040
10.729273 0.2040 0.2060 0.2070 0.2110 0.2140
10.761000 0.2170 0.2240 0.2320 0.2400 0.2480
10.793273 0.2640 0.2710 0.2790 0.2850 0.2920
10.826000 0.3010 0.3110 0.3230 0.3340 0.3420
10.858273 0.3520 0.3600 0.3700 0.3790 0.3910
10.890000 0.4090 0.4170 0.4280 0.4390 0.4510
10.922273 0.4570 0.4620 0.4650 0.4690 0.4740
10.955000 0.4820 0.4830 0.4830 0.4820 0.4780
10.987273 0.4770 0.4720 0.4670 0.4590 0.4540
11.019000 0.4480 0.4430 0.4380 0.4360 0.4350
11.051273 0.4350 0.4350 0.4350 0.4350 0.4360
11.084000 0.4380 0.4380 0.4360 0.4350 0.4260
11.116273 0.4170 0.4050 0.3940 0.3780 0.3570
11.148000 0.3340 0.3060 0.2770 0.2610 0.2450
11.180273 0.2060 0.1810 0.1720 0.1500 0.1410
11.213000 0.1330 0.1260 0.1200 0.1180 0.1180
11.245273 0.1200 0.1230 0.1330 0.1470 0.1680
11.277000 0.1930 0.2170 0.2430 0.2900 0.3240
11.309273 0.3550 0.3860 0.4430 0.4720 0.5160
11.342000 0.5290 0.5450 0.5740 0.5920 0.6080
11.374273 0.6230 0.6360 0.6460 0.6540 0.6620
11.406000 0.6670 0.6720 0.6750 0.6800 0.6880
11.438273 0.6910 0.6960 0.7040 0.7090 0.7140
11.471000 0.7170 0.7200 0.7240 0.7270 0.7280
11.503273 0.7320 0.7370 0.7460 0.7540 0.7560
11.535000 0.7580 0.7610 0.7640 0.7670 0.7690
11.567273 0.7720 0.7750 0.7770 0.7790 0.7800
11.600000 0.7820 0.7880 0.7920 0.7930 0.7950
11.632273 0.7970 0.7970 0.7980 0.7980 0.7980
11.665000 0.7980 0.8000 0.8000 0.8000 0.8010
11.697273 0.8010 0.8010 0.8000 0.8000 0.8000
11.729000 0.8000 0.8000 0.8000 0.8010 0.8030
11.761273 0.8060 0.8080 0.8100 0.8110 0.8110
11.794000 0.8110 0.8130 0.8130 0.8140 0.8140
11.826273 0.8160 0.8180 0.8190 0.8210 0.8230
11.858000 0.8260 0.8270 0.8290 0.8290 0.8310
11.890273 0.8310 0.8320 0.8320 0.8340 0.8370
11.923000 0.8370 0.8390 0.8390 0.8390 0.8370
11.955273 0.8370 0.8390 0.8400 0.8420 0.8400
11.987000 0.8360 0.8360 0.8390 0.8420 0.8450
12.019273 0.8490 0.8500 0.8500 0.8500 0.8490
12.052000 0.8470 0.8450 0.8450 0.8530 0.8550
12.084273 0.8570 0.8550 0.8500 0.8500 0.8490
12.116000 0.8490 0.8530 0.8550 0.8550 0.8550
12.148273 0.8570 0.8600 0.8580 0.8580 0.8570
12.181000 0.8570 0.8600 0.8620 0.8620 0.8630
12.213273 0.8650 0.8660 0.8650 0.8650 0.8630
12.245000 0.8620 0.8620 0.8600 0.8600 0.8580
12.277273 0.8580 0.8600 0.8630 0.8660 0.8700
12.310000 0.8700 0.8630 0.8630 0.8650 0.8710
12.342273 0.8750 0.8710 0.8730 0.8730 0.8730
12.374000 0.8730 0.8750 0.8750 0.8760 0.8790
12.406273 0.8790 0.8790 0.8780 0.8780 0.8790
12.439000 0.8810 0.8810 0.8840 0.8890 0.8890
12.471273 0.8870 0.8870 0.8870 0.8870 0.8870
12.503000 0.8860 0.8860 0.8860 0.8860 0.8860
12.535273 0.8870 0.8890 0.8920 0.8920 0.8920
12.568000 0.8910 0.8910 0.8890 0.8890 0.8890
12.600273 0.8890 0.8910 0.8910 0.8910 0.8910
12.632000 0.8910 0.8910 0.8940 0.8960 0.8960
12.664273 0.8960 0.8940 0.8940 0.8920 0.8920
12.697000 0.8920 0.8910 0.8910 0.8920 0.8940
12.729273 0.8990 0.8990 0.8960 0.8920 0.8910
12.761000 0.8910 0.8920 0.8960 0.8970 0.8970
12.793273 0.8990 0.8990 0.8960 0.8940 0.8920
12.826000 0.8920 0.8910 0.8920 0.8940 0.8960
12.858273 0.8970 0.8970 0.8970 0.8960 0.8940
12.890000 0.8940 0.8940 0.8940 0.8940 0.8970
12.922273 0.9000 0.9000 0.8990 0.8990 0.8990
12.955000 0.8970 0.8940 0.8890 0.8840 0.8830
12.987273 0.8830 0.8920 0.8920 0.8890 0.8830
13.019000 0.8810 0.8810 0.8830 0.8890 0.8890
13.051273 0.8870 0.8810 0.8830 0.8830 0.8830
13.084000 0.8830 0.8840 0.8860 0.8890 0.8860
13.116273 0.8790 0.8730 0.8730 0.8730 0.8710
13.148000 0.8700 0.8700 0.8710 0.8750 0.8760
13.180273 0.8750 0.8730 0.8710 0.8710 0.8700
13.213000 0.8680 0.8660 0.8650 0.8630 0.8630
13.245273 0.8600 0.8580 0.8580 0.8580 0.8570
13.277000 0.8570 0.8550 0.8550 0.8550 0.8550
13.309273 0.8530 0.8520 0.8500 0.8500 0.8500
13.342000 0.8500 0.8490 0.8470 0.8470 0.8440
13.374273 0.8420 0.8420 0.8390 0.8340 0.8320
13.406000 0.8320 0.8310 0.8290 0.8290 0.8270
13.438273 0.8240 0.8180 0.8130 0.8100 0.8060
13.471000 0.8060 0.8030 0.8000 0.7980 0.7930
13.503273 0.7900 0.7880 0.7870 0.7870 0.7850
13.535000 0.7800 0.7720 0.7660 0.7590 0.7510
13.567273 0.7460 0.7450 0.7410 0.7400 0.7380
13.600000 0.7300 0.7220 0.7170 0.7120 0.7070
13.632273 0.7020 0.6990 0.6990 0.6980 0.6940
13.665000 0.6930 0.6890 0.6860 0.6850 0.6810
13.697273 0.6810 0.6800 0.6800 0.6810 0.6810
13.729000 0.6830 0.6880 0.6880 0.6930 0.6960
13.761273 0.7010 0.7060 0.7120 0.7200 0.7270
13.794000 0.7330 0.7370 0.7400 0.7450 0.7500
13.826273 0.7530 0.7560 0.7580 0.7610 0.7640
13.858000 0.7660 0.7670 0.7690 0.7690 0.7710
13.890273 0.7720 0.7740 0.7750 0.7770 0.7790
13.923000 0.7790 0.7770 0.7770 0.7790 0.7790
13.955273 0.7790 0.7770 0.7740 0.7720 0.7710
13.987000 0.7710 0.7690 0.7660 0.7640 0.7590
14.019273 0.7540 0.7500 0.7460 0.7410 0.7400
14.052000 0.7370 0.7300 0.7270 0.7220 0.7150
14.084273 0.7120 0.7070 0.7010 0.6980 0.6940
14.116000 0.6890 0.6810 0.6750 0.6670 0.6520
14.148273 0.6470 0.6390 0.6340 0.6290 0.6250
14.181000 0.6180 0.6100 0.6080 0.6020 0.5950
14.213273 0.5940 0.5900 0.5890 0.5860 0.5820
14.245000 0.5790 0.5770 0.5760 0.5760 0.5770
14.277273 0.5790 0.5820 0.5840 0.5860 0.5890
14.310000 0.5920 0.5950 0.5990 0.6020 0.6050
14.342273 0.6080 0.6180 0.6250 0.6260 0.6290
14.374000 0.6310 0.6370 0.6490 0.6540 0.6570
14.406273 0.6600 0.6650 0.6700 0.6750 0.6800
14.439000 0.6860 0.6880 0.6890 0.6940 0.7090
14.471273 0.7140 0.7170 0.7220 0.7280 0.7300
14.503000 0.7300 0.7300 0.7330 0.7370 0.7410
14.535273 0.7410 0.7410 0.7430 0.7430 0.7460
14.568000 0.7460 0.7480 0.7480 0.7480 0.7480
14.600273 0.7500 0.7510 0.7510 0.7500 0.7460
14.632000 0.7480 0.7510 0.7530 0.7530 0.7540
14.664273 0.7540 0.7530 0.7510 0.7500 0.7460
14.697000 0.7460 0.7500 0.7500 0.7510 0.7510
14.729273 0.7510 0.7510 0.7500 0.7500 0.7450
14.761000 0.7430 0.7430 0.7450 0.7450 0.7430
14.793273 0.7410 0.7410 0.7410 0.7410 0.7410
14.826000 0.7380 0.7370 0.7370 0.7370 0.7370
14.858273 0.7370 0.7370 0.7350 0.7330 0.7320
14.890000 0.7320 0.7330 0.7400 0.7400 0.7370
14.922273 0.7350 0.7330 0.7320 0.7330 0.7330
14.955000 0.7350 0.7370 0.7370 0.7330 0.7320
14.987273 0.7320 0.7300 0.7270 0.7250 0.7240
15.019000 0.7200 0.7190 0.7170 0.7170 0.7150
15.051273 0.7150 0.7150 0.7170 0.7190 0.7240
15.084000 0.7280 0.7320 0.7320 0.7350 0.7380
15.116273 0.7430 0.7450 0.7530 0.7560 0.7610
15.148000 0.7620 0.7620 0.7620 0.7640 0.7640
15.180273 0.7660 0.7660 0.7620 0.7620 0.7640
15.213000 0.7710 0.7720 0.7720 0.7690 0.7670
15.245273 0.7620 0.7620 0.7640 0.7640 0.7670
15.277000 0.7690 0.7710 0.7720 0.7720 0.7710
15.309273 0.7710 0.7710 0.7710 0.7690 0.7690
15.342000 0.7690 0.7690 0.7690 0.7690 0.7710
15.374273 0.7740 0.7720 0.7710 0.7690 0.7690
15.406000 0.7640 0.7620 0.7640 0.7660 0.7710
15.438273 0.7710 0.7670 0.7670 0.7660 0.7660
15.471000 0.7640 0.7610 0.7580 0.7560 0.7560
15.503273 0.7540 0.7560 0.7560 0.7560 0.7560
15.535000 0.7560 0.7580 0.7590 0.7590 0.7610
15.567273 0.7610 0.7610 0.7590 0.7590 0.7590
15.600000 0.7590 0.7580 0.7530 0.7530 0.7510
15.632273 0.7530 0.7560 0.7590 0.7590 0.7510
15.665000 0.7500 0.7480 0.7460 0.7450 0.7450
15.697273 0.7430 0.7450 0.7480 0.7500 0.7480
15.729000 0.7460 0.7430 0.7410 0.7410 0.7410
15.761273 0.7400 0.7410 0.7410
##END=
