##TITLE=2-CHLORO-1,3-BUTADIENE
##JCAMP-DX=4.24
##DATA TYPE=INFRARED SPECTRUM
##CLASS=COBLENTZ
##ORIGIN=W.T. BOLLETER
##OWNER=COBLENTZ SOCIETY
Collection (C) 2018 copyright by the U.S. Secretary of Commerce
on behalf of the United States of America. All rights reserved.
##DATE=Not specified, most likely prior to 1970
##CAS REGISTRY NO=126-99-8
##MOLFORM=C4 H5 Cl
##SOURCE REFERENCE=COBLENTZ NO. 4517
##$NIST SOURCE=COBLENTZ
##$NIST IMAGE=cob4517
##SPECTROMETER/DATA SYSTEM=Not specified, most likely a prism, grating, or hybrid spectrometer.
##PATH LENGTH=0.0025 CM
##SAMPLING PROCEDURE=TRANSMISSION
##RESOLUTION=4
##DATA PROCESSING=DIGITIZED BY NIST FROM HARD COPY
##XUNITS=MICROMETERS
##YUNITS=TRANSMITTANCE
##XFACTOR=1.000000
##YFACTOR=1
##DELTAX=000.017614
##FIRSTX=14.503
##LASTX=38.0181
##FIRSTY=0.241
##MAXX=38.0181
##MINX=14.503
##MAXY=0.924
##MINY=0
##NPOINTS=1336
##XYDATA=(X++(Y..Y))
14.503000 0.2410 0.2410 0.2410 0.2430 0.2450
14.591136 0.2500 0.2580 0.2720 0.2840 0.2990
14.679000 0.3150 0.3290 0.3490 0.3530 0.3630
14.767136 0.3670 0.3700 0.3720 0.3760 0.3760
14.855000 0.3780 0.3760 0.3740 0.3700 0.3630
14.943136 0.3580 0.3510 0.3440 0.3360 0.3310
15.031000 0.3260 0.3130 0.3020 0.2950 0.2790
15.119136 0.2590 0.2500 0.2320 0.2160 0.2000
15.207000 0.1890 0.1790 0.1700 0.1610 0.1520
15.295136 0.1480 0.1410 0.1370 0.1340 0.1290
15.384000 0.1250 0.1200 0.1030 0.0960 0.0860
15.472136 0.0800 0.0750 0.0680 0.0390 0.0350
15.560000 0.0300 0.0230 0.0210 0.0170 0.0160
15.648136 0.0100 0.0070 0.0070 0.0050 0.0010
15.736000 0.0010 0.0010 0.0010 0.0000 0.0000
15.824136 0.0000 0.0000 0.0000 0.0000 0.0000
15.912000 0.0000 0.0000 0.0000 0.0000 0.0000
16.000136 0.0000 0.0010 0.0030 0.0030 0.0050
16.088000 0.0070 0.0100 0.0140 0.0210 0.0230
16.176136 0.0260 0.0350 0.0460 0.0550 0.0800
16.264000 0.0910 0.1000 0.1110 0.1450 0.1550
16.352136 0.1720 0.1880 0.2040 0.2180 0.2360
16.440000 0.2500 0.2670 0.2830 0.2970 0.3220
16.528136 0.3490 0.3560 0.3700 0.3810 0.3960
16.616000 0.4030 0.4130 0.4210 0.4260 0.4330
16.704136 0.4440 0.4490 0.4510 0.4550 0.4620
16.793000 0.4650 0.4710 0.4730 0.4760 0.4780
16.881136 0.4800 0.4820 0.4820 0.4830 0.4830
16.969000 0.4820 0.4800 0.4780 0.4760 0.4740
17.057136 0.4740 0.4730 0.4730 0.4730 0.4740
17.145000 0.4740 0.4760 0.4760 0.4780 0.4800
17.233136 0.4830 0.4850 0.4870 0.4890 0.4890
17.321000 0.4940 0.4960 0.5000 0.5000 0.5010
17.409136 0.5010 0.5030 0.5030 0.5050 0.5050
17.497000 0.5070 0.5070 0.5080 0.5100 0.5100
17.585136 0.5120 0.5160 0.5170 0.5170 0.5170
17.673000 0.5210 0.5230 0.5250 0.5280 0.5300
17.761136 0.5340 0.5370 0.5440 0.5510 0.5530
17.849000 0.5590 0.5620 0.5730 0.5800 0.5870
17.937136 0.5940 0.6000 0.6050 0.6120 0.6180
18.026000 0.6250 0.6300 0.6340 0.6370 0.6410
18.114136 0.6480 0.6500 0.6540 0.6610 0.6660
18.202000 0.6730 0.6750 0.6770 0.6790 0.6810
18.290136 0.6820 0.6840 0.6860 0.6860 0.6860
18.378000 0.6860 0.6840 0.6820 0.6820 0.6810
18.466136 0.6790 0.6770 0.6750 0.6700 0.6680
18.554000 0.6640 0.6610 0.6570 0.6540 0.6520
18.642136 0.6410 0.6320 0.6290 0.6180 0.6070
18.730000 0.6000 0.5870 0.5710 0.5530 0.5460
18.818136 0.5230 0.5050 0.4960 0.4760 0.4530
18.906000 0.4370 0.4150 0.3970 0.3760 0.3540
18.994136 0.3360 0.3180 0.2970 0.2770 0.2540
19.082000 0.2410 0.2200 0.2040 0.1950 0.1840
19.170136 0.1810 0.1770 0.1750 0.1750 0.1810
19.259000 0.1970 0.2040 0.2150 0.2320 0.2520
19.347136 0.2720 0.2990 0.3110 0.3540 0.3760
19.435000 0.3960 0.4190 0.4400 0.4620 0.4800
19.523136 0.4960 0.5070 0.5210 0.5370 0.5510
19.611000 0.5690 0.5890 0.6020 0.6070 0.6210
19.699136 0.6290 0.6370 0.6460 0.6500 0.6540
19.787000 0.6610 0.6660 0.6810 0.6860 0.6880
19.875136 0.6890 0.6950 0.6970 0.6980 0.7000
19.963000 0.7020 0.7060 0.7070 0.7070 0.7090
20.051136 0.7090 0.7070 0.7070 0.7070 0.7060
20.139000 0.7060 0.7060 0.7060 0.7040 0.7040
20.227136 0.7040 0.7020 0.7020 0.7000 0.7000
20.315000 0.6980 0.6970 0.6950 0.6910 0.6860
20.403136 0.6840 0.6820 0.6790 0.6730 0.6700
20.492000 0.6660 0.6570 0.6500 0.6460 0.6450
20.580136 0.6430 0.6370 0.6360 0.6340 0.6320
20.668000 0.6300 0.6300 0.6320 0.6320 0.6360
20.756136 0.6410 0.6480 0.6520 0.6540 0.6590
20.844000 0.6630 0.6730 0.6770 0.6810 0.6820
20.932136 0.6840 0.6880 0.6890 0.6910 0.6910
21.020000 0.6930 0.6950 0.6970 0.6980 0.7000
21.108136 0.7020 0.7040 0.7060 0.7090 0.7110
21.196000 0.7130 0.7130 0.7130 0.7150 0.7160
21.284136 0.7160 0.7160 0.7180 0.7220 0.7240
21.372000 0.7250 0.7270 0.7290 0.7290 0.7290
21.460136 0.7290 0.7310 0.7310 0.7310 0.7310
21.548000 0.7320 0.7320 0.7340 0.7340 0.7340
21.636136 0.7320 0.7320 0.7310 0.7310 0.7320
21.725000 0.7320 0.7320 0.7320 0.7320 0.7320
21.813136 0.7320 0.7310 0.7290 0.7290 0.7290
21.901000 0.7290 0.7270 0.7250 0.7250 0.7240
21.989136 0.7220 0.7220 0.7200 0.7180 0.7160
22.077000 0.7150 0.7150 0.7130 0.7110 0.7110
22.165136 0.7090 0.7070 0.7070 0.7060 0.7040
22.253000 0.7020 0.7020 0.7000 0.6980 0.6970
22.341136 0.6950 0.6930 0.6910 0.6890 0.6890
22.429000 0.6880 0.6880 0.6860 0.6810 0.6770
22.517136 0.6720 0.6680 0.6680 0.6660 0.6610
22.605000 0.6570 0.6520 0.6460 0.6390 0.6370
22.693136 0.6340 0.6290 0.6250 0.6160 0.6110
22.781000 0.6090 0.6030 0.6020 0.5980 0.5870
22.869136 0.5780 0.5710 0.5530 0.5480 0.5410
22.958000 0.5320 0.5230 0.5140 0.5050 0.4980
23.046136 0.4890 0.4800 0.4690 0.4640 0.4530
23.134000 0.4490 0.4400 0.4330 0.4300 0.4210
23.222136 0.4150 0.4030 0.3990 0.3920 0.3830
23.310000 0.3760 0.3670 0.3540 0.3490 0.3350
23.398136 0.3310 0.3270 0.3220 0.3100 0.3010
23.486000 0.2880 0.2750 0.2650 0.2520 0.2470
23.574136 0.2320 0.2200 0.2060 0.1970 0.1820
23.662000 0.1720 0.1640 0.1520 0.1460 0.1360
23.750136 0.1290 0.1180 0.1020 0.0960 0.0860
23.838000 0.0770 0.0730 0.0660 0.0550 0.0500
23.926136 0.0440 0.0390 0.0320 0.0260 0.0210
24.014000 0.0170 0.0160 0.0160 0.0160 0.0140
24.102136 0.0140 0.0120 0.0120 0.0120 0.0100
24.191000 0.0100 0.0100 0.0100 0.0100 0.0080
24.279136 0.0080 0.0070 0.0050 0.0050 0.0050
24.367000 0.0030 0.0030 0.0030 0.0030 0.0030
24.455136 0.0030 0.0050 0.0050 0.0050 0.0050
24.543000 0.0050 0.0050 0.0070 0.0070 0.0070
24.631136 0.0070 0.0070 0.0080 0.0100 0.0120
24.719000 0.0120 0.0140 0.0140 0.0170 0.0260
24.807136 0.0300 0.0340 0.0370 0.0390 0.0430
24.895000 0.0460 0.0500 0.0530 0.0570 0.0590
24.983136 0.0640 0.0730 0.0800 0.0860 0.0910
25.071000 0.0980 0.1000 0.1030 0.1110 0.1230
25.159136 0.1340 0.1390 0.1480 0.1500 0.1520
25.247000 0.1540 0.1610 0.1640 0.1700 0.1750
25.335136 0.1790 0.1820 0.1880 0.1890 0.1930
25.424000 0.1970 0.1980 0.1980 0.2000 0.2000
25.512136 0.2020 0.2000 0.1980 0.1950 0.1910
25.600000 0.1880 0.1860 0.1790 0.1730 0.1680
25.688136 0.1630 0.1590 0.1520 0.1410 0.1360
25.776000 0.1320 0.1290 0.1230 0.1200 0.1140
25.864136 0.1120 0.1050 0.1020 0.1000 0.1000
25.952000 0.1020 0.1050 0.1090 0.1180 0.1270
26.040136 0.1360 0.1460 0.1520 0.1610 0.1700
26.128000 0.1810 0.1970 0.2040 0.2220 0.2400
26.216136 0.2520 0.2720 0.2840 0.2970 0.3020
26.304000 0.3220 0.3540 0.3670 0.3760 0.3940
26.392136 0.4050 0.4130 0.4240 0.4310 0.4400
26.480000 0.4490 0.4640 0.4730 0.4820 0.4910
26.568136 0.5000 0.5030 0.5160 0.5250 0.5320
26.657000 0.5350 0.5390 0.5480 0.5510 0.5590
26.745136 0.5680 0.5770 0.5840 0.5910 0.6020
26.833000 0.6030 0.6090 0.6160 0.6270 0.6320
26.921136 0.6370 0.6390 0.6410 0.6500 0.6540
27.009000 0.6550 0.6550 0.6590 0.6610 0.6640
27.097136 0.6750 0.6810 0.6840 0.6890 0.6930
27.185000 0.7020 0.7020 0.7040 0.7060 0.7090
27.273136 0.7130 0.7180 0.7200 0.7240 0.7250
27.361000 0.7270 0.7290 0.7320 0.7360 0.7410
27.449136 0.7450 0.7470 0.7490 0.7490 0.7520
27.537000 0.7540 0.7560 0.7590 0.7630 0.7650
27.625136 0.7680 0.7700 0.7720 0.7740 0.7790
27.713000 0.7830 0.7840 0.7880 0.7920 0.7970
27.801136 0.7990 0.8010 0.8010 0.8020 0.8040
27.890000 0.8060 0.8060 0.8080 0.8080 0.8110
27.978136 0.8150 0.8180 0.8220 0.8240 0.8240
28.066000 0.8260 0.8290 0.8310 0.8350 0.8350
28.154136 0.8350 0.8360 0.8360 0.8380 0.8400
28.242000 0.8420 0.8440 0.8510 0.8530 0.8530
28.330136 0.8540 0.8540 0.8600 0.8600 0.8620
28.418000 0.8620 0.8620 0.8620 0.8630 0.8670
28.506136 0.8690 0.8700 0.8700 0.8740 0.8740
28.594000 0.8780 0.8790 0.8790 0.8790 0.8810
28.682136 0.8810 0.8810 0.8810 0.8810 0.8810
28.770000 0.8830 0.8850 0.8850 0.8850 0.8880
28.858136 0.8880 0.8900 0.8920 0.8920 0.8960
28.946000 0.8970 0.8970 0.8970 0.8970 0.8990
29.034136 0.8990 0.8990 0.8990 0.8990 0.9010
29.122000 0.9010 0.9010 0.9030 0.9030 0.9030
29.210136 0.9030 0.9050 0.9050 0.9060 0.9060
29.299000 0.9060 0.9100 0.9100 0.9100 0.9100
29.387136 0.9100 0.9120 0.9120 0.9120 0.9120
29.475000 0.9120 0.9120 0.9130 0.9130 0.9130
29.563136 0.9130 0.9130 0.9130 0.9130 0.9130
29.651000 0.9130 0.9150 0.9150 0.9150 0.9150
29.739136 0.9150 0.9150 0.9150 0.9150 0.9150
29.827000 0.9150 0.9170 0.9190 0.9190 0.9190
29.915136 0.9190 0.9190 0.9190 0.9210 0.9210
30.003000 0.9210 0.9210 0.9210 0.9210 0.9220
30.091136 0.9220 0.9220 0.9220 0.9220 0.9220
30.179000 0.9220 0.9220 0.9220 0.9220 0.9210
30.267136 0.9210 0.9210 0.9220 0.9220 0.9220
30.355000 0.9220 0.9220 0.9220 0.9220 0.9220
30.443136 0.9220 0.9220 0.9220 0.9210 0.9190
30.532000 0.9190 0.9190 0.9190 0.9190 0.9190
30.620136 0.9210 0.9210 0.9210 0.9210 0.9210
30.708000 0.9210 0.9210 0.9210 0.9220 0.9220
30.796136 0.9220 0.9220 0.9220 0.9220 0.9220
30.884000 0.9220 0.9220 0.9220 0.9220 0.9220
30.972136 0.9220 0.9220 0.9210 0.9210 0.9220
31.060000 0.9220 0.9240 0.9240 0.9240 0.9240
31.148136 0.9240 0.9220 0.9220 0.9220 0.9220
31.236000 0.9220 0.9220 0.9220 0.9220 0.9220
31.324136 0.9220 0.9220 0.9220 0.9220 0.9220
31.412000 0.9220 0.9220 0.9210 0.9210 0.9210
31.500136 0.9210 0.9210 0.9210 0.9190 0.9190
31.588000 0.9190 0.9190 0.9170 0.9170 0.9170
31.676136 0.9190 0.9190 0.9210 0.9210 0.9210
31.765000 0.9210 0.9210 0.9210 0.9210 0.9210
31.853136 0.9210 0.9210 0.9210 0.9190 0.9190
31.941000 0.9190 0.9190 0.9190 0.9190 0.9190
32.029136 0.9190 0.9190 0.9190 0.9190 0.9190
32.117000 0.9190 0.9190 0.9190 0.9190 0.9190
32.205136 0.9170 0.9150 0.9130 0.9130 0.9120
32.293000 0.9120 0.9120 0.9120 0.9120 0.9100
32.381136 0.9100 0.9100 0.9080 0.9080 0.9080
32.469000 0.9080 0.9100 0.9100 0.9100 0.9100
32.557136 0.9100 0.9100 0.9100 0.9100 0.9100
32.645000 0.9100 0.9100 0.9100 0.9100 0.9080
32.733136 0.9080 0.9080 0.9080 0.9060 0.9060
32.821000 0.9060 0.9050 0.9050 0.9050 0.9030
32.909136 0.9030 0.9010 0.8990 0.8970 0.8970
32.998000 0.8960 0.8940 0.8920 0.8920 0.8920
33.086136 0.8900 0.8900 0.8900 0.8900 0.8900
33.174000 0.8900 0.8900 0.8880 0.8880 0.8870
33.262136 0.8870 0.8870 0.8870 0.8880 0.8880
33.350000 0.8880 0.8880 0.8870 0.8850 0.8850
33.438136 0.8850 0.8830 0.8830 0.8810 0.8810
33.526000 0.8790 0.8780 0.8780 0.8760 0.8760
33.614136 0.8740 0.8740 0.8720 0.8720 0.8700
33.702000 0.8690 0.8690 0.8670 0.8670 0.8650
33.790136 0.8650 0.8630 0.8620 0.8600 0.8600
33.878000 0.8580 0.8580 0.8560 0.8560 0.8540
33.966136 0.8540 0.8530 0.8530 0.8510 0.8490
34.054000 0.8490 0.8470 0.8470 0.8440 0.8440
34.142136 0.8440 0.8440 0.8420 0.8420 0.8420
34.231000 0.8420 0.8420 0.8400 0.8400 0.8380
34.319136 0.8350 0.8330 0.8330 0.8310 0.8310
34.407000 0.8290 0.8270 0.8270 0.8260 0.8240
34.495136 0.8240 0.8220 0.8200 0.8180 0.8170
34.583000 0.8150 0.8110 0.8100 0.8080 0.8040
34.671136 0.8020 0.7990 0.7990 0.7970 0.7970
34.759000 0.7950 0.7930 0.7920 0.7920 0.7900
34.847136 0.7880 0.7880 0.7880 0.7880 0.7860
34.935000 0.7860 0.7840 0.7840 0.7840 0.7830
35.023136 0.7830 0.7830 0.7830 0.7830 0.7810
35.111000 0.7790 0.7770 0.7750 0.7750 0.7740
35.199136 0.7720 0.7700 0.7670 0.7670 0.7650
35.287000 0.7630 0.7630 0.7630 0.7610 0.7590
35.375136 0.7540 0.7520 0.7500 0.7500 0.7490
35.464000 0.7470 0.7450 0.7430 0.7400 0.7380
35.552136 0.7380 0.7380 0.7360 0.7360 0.7340
35.640000 0.7320 0.7320 0.7320 0.7320 0.7310
35.728136 0.7290 0.7250 0.7240 0.7220 0.7200
35.816000 0.7180 0.7180 0.7160 0.7150 0.7130
35.904136 0.7110 0.7090 0.7060 0.7040 0.7040
35.992000 0.7020 0.7020 0.7000 0.7000 0.6980
36.080136 0.6980 0.6970 0.6930 0.6930 0.6930
36.168000 0.6910 0.6910 0.6890 0.6890 0.6890
36.256136 0.6890 0.6880 0.6860 0.6840 0.6820
36.344000 0.6820 0.6820 0.6810 0.6810 0.6810
36.432136 0.6810 0.6810 0.6790 0.6790 0.6770
36.520000 0.6730 0.6720 0.6720 0.6720 0.6720
36.608136 0.6720 0.6700 0.6700 0.6680 0.6680
36.697000 0.6660 0.6640 0.6630 0.6630 0.6610
36.785136 0.6590 0.6590 0.6570 0.6550 0.6520
36.873000 0.6520 0.6500 0.6500 0.6480 0.6460
36.961136 0.6450 0.6410 0.6370 0.6340 0.6320
37.049000 0.6290 0.6250 0.6230 0.6230 0.6210
37.137136 0.6210 0.6200 0.6180 0.6160 0.6140
37.225000 0.6140 0.6120 0.6110 0.6090 0.6090
37.313136 0.6090 0.6070 0.6070 0.6070 0.6050
37.401000 0.6050 0.6030 0.6030 0.6030 0.6020
37.489136 0.6020 0.6000 0.6000 0.5980 0.5960
37.577000 0.5960 0.5960 0.5960 0.5940 0.5930
37.665136 0.5930 0.5910 0.5910 0.5890 0.5890
37.753000 0.5890 0.5890 0.5890 0.5890 0.5890
37.841136 0.5870 0.5860 0.5840 0.5840 0.5820
37.930000 0.5820 0.5820 0.5820 0.5820 0.5820
38.018136 0.5820
##END=
