##TITLE=2,4-PENTADIENENITRILE
##JCAMP-DX=4.24
##DATA TYPE=INFRARED SPECTRUM
##CLASS=COBLENTZ
##ORIGIN=TENNESSEE EASTMAN COMPANY, RESEARCH LABORATORIES
##OWNER=COBLENTZ SOCIETY
Collection (C) 2018 copyright by the U.S. Secretary of Commerce
on behalf of the United States of America. All rights reserved.
##DATE=Not specified, most likely prior to 1970
##NAMES=(2E)-2,4-pentadienenitrile
##CAS REGISTRY NO=1615-70-9
##MOLFORM=C5 H5 N
##BP=41-44 C AT 2 mmHg
##SOURCE REFERENCE=COBLENTZ NO. 1380
##$NIST SOURCE=COBLENTZ
##$NIST IMAGE=cob1380
##SPECTROMETER/DATA SYSTEM=Not specified, most likely a prism, grating, or hybrid spectrometer.
##STATE=LIQUID
##PATH LENGTH=FILM
##SAMPLING PROCEDURE=TRANSMISSION
##RESOLUTION=4
##DATA PROCESSING=DIGITIZED BY NIST FROM HARD COPY
##XUNITS=MICROMETERS
##YUNITS=TRANSMITTANCE
##XFACTOR=1.000000
##YFACTOR=1
##DELTAX=000.006819
##FIRSTX=2.02
##LASTX=15.9866
##FIRSTY=0.952
##MAXX=15.9866
##MINX=2.02
##MAXY=0.967
##MINY=0.013
##NPOINTS=2049
##XYDATA=(X++(Y..Y))
2.020000 0.9520 0.9540 0.9540 0.9540 0.9520
2.054113 0.9520 0.9520 0.9500 0.9480 0.9480
2.089000 0.9470 0.9450 0.9430 0.9430 0.9420
2.123113 0.9420 0.9420 0.9420 0.9420 0.9420
2.157000 0.9420 0.9420 0.9420 0.9400 0.9400
2.191113 0.9350 0.9310 0.9310 0.9300 0.9280
2.225000 0.9280 0.9280 0.9230 0.9210 0.9210
2.259113 0.9210 0.9200 0.9200 0.9200 0.9180
2.293000 0.9160 0.9140 0.9130 0.9110 0.9090
2.327113 0.9090 0.9090 0.9090 0.9110 0.9110
2.361000 0.9130 0.9130 0.9130 0.9130 0.9140
2.395113 0.9180 0.9200 0.9230 0.9260 0.9310
2.430000 0.9330 0.9330 0.9370 0.9380 0.9380
2.464113 0.9380 0.9370 0.9370 0.9370 0.9350
2.498000 0.9350 0.9380 0.9380 0.9380 0.9370
2.532113 0.9370 0.9370 0.9380 0.9380 0.9380
2.566000 0.9380 0.9400 0.9400 0.9400 0.9400
2.600113 0.9420 0.9420 0.9400 0.9380 0.9380
2.634000 0.9400 0.9400 0.9370 0.9310 0.9300
2.668113 0.9300 0.9310 0.9350 0.9400 0.9400
2.702000 0.9420 0.9420 0.9420 0.9420 0.9400
2.736113 0.9400 0.9380 0.9380 0.9400 0.9400
2.771000 0.9400 0.9400 0.9400 0.9400 0.9400
2.805113 0.9400 0.9400 0.9400 0.9400 0.9400
2.839000 0.9400 0.9400 0.9400 0.9420 0.9420
2.873113 0.9420 0.9420 0.9420 0.9420 0.9420
2.907000 0.9420 0.9420 0.9420 0.9420 0.9420
2.941113 0.9420 0.9420 0.9400 0.9380 0.9380
2.975000 0.9350 0.9330 0.9330 0.9330 0.9330
3.009113 0.9330 0.9310 0.9310 0.9310 0.9310
3.043000 0.9310 0.9310 0.9300 0.9300 0.9300
3.077113 0.9280 0.9260 0.9200 0.9130 0.9060
3.112000 0.9010 0.8940 0.8860 0.8790 0.8720
3.146113 0.8630 0.8570 0.8460 0.8360 0.8290
3.180000 0.8210 0.8160 0.8090 0.7950 0.7670
3.214113 0.7500 0.7380 0.6870 0.6270 0.5710
3.248000 0.4880 0.4230 0.3620 0.3600 0.3720
3.282113 0.4310 0.4980 0.5320 0.6200 0.6290
3.316000 0.6290 0.6020 0.6000 0.6020 0.6580
3.350113 0.6970 0.7090 0.7290 0.7460 0.7600
3.384000 0.7750 0.7800 0.7890 0.7900 0.7770
3.418113 0.7750 0.7770 0.8060 0.8290 0.8530
3.453000 0.8670 0.8740 0.8770 0.8790 0.8820
3.487113 0.8860 0.8890 0.8940 0.9010 0.9060
3.521000 0.9140 0.9210 0.9300 0.9300 0.9310
3.555113 0.9310 0.9330 0.9330 0.9350 0.9350
3.589000 0.9350 0.9330 0.9350 0.9350 0.9350
3.623113 0.9370 0.9380 0.9400 0.9420 0.9430
3.657000 0.9430 0.9450 0.9450 0.9430 0.9450
3.691113 0.9450 0.9470 0.9470 0.9470 0.9480
3.725000 0.9500 0.9480 0.9500 0.9500 0.9520
3.759113 0.9550 0.9570 0.9570 0.9540 0.9540
3.793000 0.9540 0.9540 0.9540 0.9540 0.9540
3.827113 0.9600 0.9600 0.9600 0.9600 0.9600
3.862000 0.9600 0.9600 0.9600 0.9600 0.9600
3.896113 0.9570 0.9550 0.9520 0.9520 0.9520
3.930000 0.9520 0.9520 0.9520 0.9520 0.9520
3.964113 0.9520 0.9520 0.9430 0.9430 0.9400
3.998000 0.9350 0.9310 0.9310 0.9330 0.9350
4.032113 0.9350 0.9370 0.9380 0.9420 0.9430
4.066000 0.9450 0.9480 0.9480 0.9470 0.9450
4.100113 0.9420 0.9350 0.9300 0.9280 0.9280
4.134000 0.9310 0.9400 0.9430 0.9480 0.9500
4.168113 0.9520 0.9520 0.9540 0.9540 0.9550
4.203000 0.9550 0.9550 0.9550 0.9550 0.9540
4.237113 0.9540 0.9540 0.9540 0.9520 0.9520
4.271000 0.9500 0.9500 0.9500 0.9480 0.9450
4.305113 0.9430 0.9420 0.9400 0.9330 0.9260
4.339000 0.9160 0.9010 0.8970 0.8960 0.8970
4.373113 0.9010 0.9130 0.9160 0.9180 0.9180
4.407000 0.9160 0.9110 0.9080 0.8960 0.8840
4.441113 0.8520 0.8070 0.7510 0.6920 0.6290
4.475000 0.5730 0.4930 0.4040 0.2530 0.1070
4.509113 0.0930 0.1070 0.2220 0.3520 0.4500
4.544000 0.5610 0.6710 0.7610 0.8410 0.9300
4.578113 0.9350 0.9350 0.9160 0.9030 0.9010
4.612000 0.9030 0.9210 0.9420 0.9480 0.9520
4.646113 0.9540 0.9550 0.9590 0.9590 0.9600
4.680000 0.9600 0.9600 0.9600 0.9600 0.9600
4.714113 0.9620 0.9620 0.9620 0.9620 0.9640
4.748000 0.9640 0.9640 0.9650 0.9650 0.9650
4.782113 0.9650 0.9650 0.9650 0.9650 0.9650
4.816000 0.9650 0.9650 0.9650 0.9650 0.9650
4.850113 0.9650 0.9650 0.9650 0.9650 0.9650
4.885000 0.9650 0.9650 0.9650 0.9670 0.9670
4.919113 0.9650 0.9650 0.9650 0.9640 0.9640
4.953000 0.9640 0.9620 0.9600 0.9570 0.9520
4.987113 0.9520 0.9500 0.9480 0.9480 0.9450
5.021000 0.9450 0.9430 0.9430 0.9420 0.9350
5.055113 0.9300 0.9180 0.9080 0.8990 0.8870
5.089000 0.8790 0.8690 0.8620 0.8580 0.8530
5.123113 0.8580 0.8630 0.8690 0.8770 0.8800
5.157000 0.8820 0.8800 0.8800 0.8750 0.8720
5.191113 0.8690 0.8520 0.8380 0.8310 0.8190
5.226000 0.8060 0.7900 0.7730 0.7650 0.7550
5.260113 0.7430 0.7320 0.7210 0.7090 0.7000
5.294000 0.6930 0.6880 0.6810 0.6730 0.6640
5.328113 0.6630 0.6630 0.6640 0.6750 0.6870
5.362000 0.7040 0.7240 0.7430 0.7600 0.7680
5.396113 0.7890 0.8040 0.8210 0.8350 0.8500
5.430000 0.8670 0.8770 0.8860 0.8940 0.9010
5.464113 0.9080 0.9130 0.9160 0.9210 0.9250
5.498000 0.9260 0.9310 0.9310 0.9310 0.9310
5.532113 0.9310 0.9310 0.9250 0.9180 0.9110
5.566000 0.9010 0.8920 0.8800 0.8720 0.8620
5.600113 0.8500 0.8410 0.8330 0.8310 0.8290
5.635000 0.8260 0.8260 0.8280 0.8330 0.8360
5.669113 0.8410 0.8430 0.8410 0.8410 0.8380
5.703000 0.8310 0.8240 0.8160 0.8020 0.7900
5.737113 0.7800 0.7750 0.7700 0.7650 0.7580
5.771000 0.7500 0.7360 0.7220 0.7100 0.7040
5.805113 0.7040 0.7090 0.7140 0.7270 0.7440
5.839000 0.7630 0.7800 0.7920 0.8020 0.8040
5.873113 0.8040 0.8040 0.8020 0.7730 0.7410
5.907000 0.7020 0.6750 0.6680 0.6680 0.6730
5.941113 0.6950 0.7320 0.7600 0.7840 0.7990
5.976000 0.8020 0.8020 0.8010 0.8040 0.8040
6.010113 0.8070 0.8120 0.8140 0.8160 0.8160
6.044000 0.8140 0.8120 0.8060 0.7970 0.7780
6.078113 0.7550 0.7260 0.6930 0.6540 0.6070
6.112000 0.5540 0.4930 0.4230 0.3530 0.2890
6.146113 0.2820 0.2890 0.3460 0.4130 0.4810
6.180000 0.5420 0.5960 0.6420 0.6780 0.7050
6.214113 0.7170 0.7220 0.7310 0.7310 0.7340
6.248000 0.7340 0.7310 0.6760 0.6120 0.5370
6.282113 0.4860 0.4600 0.4540 0.4520 0.4350
6.317000 0.3890 0.2920 0.2040 0.1020 0.0980
6.351113 0.1100 0.1950 0.2840 0.3670 0.4130
6.385000 0.4420 0.4550 0.4740 0.4980 0.5220
6.419113 0.5470 0.5690 0.5880 0.6000 0.6020
6.453000 0.6100 0.6200 0.6470 0.6780 0.7090
6.487113 0.7410 0.7680 0.7920 0.8070 0.8180
6.521000 0.8230 0.8240 0.8260 0.8280 0.8310
6.555113 0.8360 0.8410 0.8480 0.8530 0.8580
6.589000 0.8620 0.8630 0.8630 0.8630 0.8650
6.623113 0.8670 0.8700 0.8720 0.8740 0.8750
6.658000 0.8740 0.8740 0.8740 0.8740 0.8740
6.692113 0.8720 0.8700 0.8700 0.8700 0.8700
6.726000 0.8700 0.8700 0.8670 0.8650 0.8570
6.760113 0.8530 0.8460 0.8380 0.8280 0.8230
6.794000 0.8140 0.8060 0.7940 0.7820 0.7680
6.828113 0.7580 0.7480 0.7270 0.7040 0.6810
6.862000 0.6610 0.6440 0.6300 0.6190 0.6070
6.896113 0.5960 0.5860 0.5730 0.5710 0.5660
6.930000 0.5660 0.5620 0.5510 0.5320 0.4980
6.964113 0.4480 0.4080 0.4040 0.4080 0.4540
6.999000 0.5050 0.5520 0.5880 0.6270 0.6370
7.033113 0.6540 0.6810 0.7020 0.7210 0.7340
7.067000 0.7460 0.7550 0.7630 0.7720 0.7720
7.101113 0.7780 0.7850 0.7850 0.7900 0.7920
7.135000 0.7940 0.7990 0.8010 0.8020 0.8070
7.169113 0.8190 0.8240 0.8260 0.8290 0.8310
7.203000 0.8330 0.8310 0.8310 0.8310 0.8260
7.237113 0.8230 0.8210 0.8140 0.8120 0.8060
7.271000 0.8020 0.8010 0.7920 0.7850 0.7770
7.305113 0.7610 0.7500 0.7320 0.6980 0.6630
7.340000 0.5780 0.4910 0.4160 0.3380 0.3360
7.374113 0.3400 0.4130 0.4470 0.4810 0.5170
7.408000 0.6560 0.7600 0.7780 0.7890 0.7990
7.442113 0.8040 0.8120 0.8140 0.8160 0.8180
7.476000 0.8210 0.8260 0.8310 0.8350 0.8410
7.510113 0.8430 0.8460 0.8500 0.8520 0.8520
7.544000 0.8530 0.8530 0.8520 0.8500 0.8480
7.578113 0.8450 0.8430 0.8360 0.8350 0.8260
7.612000 0.8180 0.8090 0.8040 0.7870 0.7720
7.646113 0.7580 0.7390 0.7120 0.6680 0.6170
7.680000 0.5490 0.5000 0.4420 0.3940 0.3890
7.714113 0.3910 0.4280 0.4720 0.5320 0.5790
7.749000 0.6190 0.6510 0.6760 0.6970 0.7140
7.783113 0.7270 0.7380 0.7480 0.7610 0.7670
7.817000 0.7730 0.7780 0.7820 0.7850 0.7890
7.851113 0.7920 0.7940 0.7950 0.7950 0.7970
7.885000 0.7970 0.7970 0.7970 0.7970 0.7950
7.919113 0.7940 0.7870 0.7840 0.7770 0.7700
7.953000 0.7650 0.7650 0.7700 0.7770 0.7820
7.987113 0.7890 0.7920 0.7950 0.7990 0.8010
8.021000 0.8020 0.8020 0.7940 0.7850 0.7730
8.055113 0.7610 0.7500 0.7320 0.7100 0.6830
8.090000 0.6580 0.6190 0.5880 0.5450 0.5060
8.124113 0.4600 0.4520 0.4520 0.4590 0.5110
8.158000 0.5620 0.6120 0.6580 0.6920 0.7040
8.192113 0.7270 0.7480 0.7700 0.7920 0.7950
8.226000 0.8020 0.8040 0.8110 0.8140 0.8180
8.260113 0.8240 0.8290 0.8330 0.8360 0.8410
8.294000 0.8410 0.8240 0.8240 0.8330 0.8400
8.328113 0.8450 0.8460 0.8480 0.8500 0.8500
8.362000 0.8520 0.8500 0.8500 0.8520 0.8520
8.396113 0.8520 0.8520 0.8520 0.8520 0.8460
8.431000 0.8430 0.8410 0.8400 0.8380 0.8380
8.465113 0.8380 0.8380 0.8380 0.8360 0.8350
8.499000 0.8350 0.8330 0.8330 0.8310 0.8260
8.533113 0.8240 0.8210 0.8160 0.8110 0.8070
8.567000 0.8020 0.7970 0.7940 0.7890 0.7840
8.601113 0.7840 0.7820 0.7800 0.7770 0.7750
8.635000 0.7750 0.7730 0.7720 0.7720 0.7700
8.669113 0.7680 0.7670 0.7650 0.7610 0.7560
8.703000 0.7480 0.7360 0.7210 0.7070 0.6980
8.737113 0.6930 0.6930 0.6930 0.6980 0.7170
8.772000 0.7310 0.7430 0.7510 0.7650 0.7750
8.806113 0.7820 0.7870 0.7900 0.7950 0.8010
8.840000 0.8010 0.8020 0.8040 0.8040 0.8110
8.874113 0.8120 0.8140 0.8160 0.8180 0.8180
8.908000 0.8210 0.8210 0.8210 0.8210 0.8190
8.942113 0.8180 0.8180 0.8160 0.8160 0.8160
8.976000 0.8160 0.8160 0.8160 0.8160 0.8160
9.010113 0.8160 0.8160 0.8160 0.8160 0.8140
9.044000 0.8140 0.8140 0.8140 0.8140 0.8140
9.078113 0.8140 0.8140 0.8140 0.8140 0.8120
9.113000 0.8090 0.8070 0.8070 0.8070 0.8070
9.147113 0.8070 0.8070 0.8070 0.8070 0.8070
9.181000 0.8070 0.8070 0.8060 0.8040 0.8020
9.215113 0.8010 0.8010 0.7990 0.7990 0.7950
9.249000 0.7940 0.7940 0.7940 0.7940 0.7950
9.283113 0.7950 0.7950 0.7950 0.7950 0.7950
9.317000 0.7950 0.7940 0.7940 0.7940 0.7940
9.351113 0.7940 0.7940 0.7940 0.7920 0.7920
9.385000 0.7920 0.7920 0.7890 0.7900 0.7890
9.419113 0.7870 0.7870 0.7850 0.7850 0.7840
9.453000 0.7840 0.7820 0.7800 0.7800 0.7780
9.487113 0.7770 0.7770 0.7750 0.7750 0.7730
9.522000 0.7720 0.7680 0.7670 0.7670 0.7650
9.556113 0.7650 0.7630 0.7610 0.7610 0.7600
9.590000 0.7600 0.7580 0.7530 0.7510 0.7480
9.624113 0.7440 0.7390 0.7340 0.7270 0.7220
9.658000 0.7170 0.7140 0.7090 0.7040 0.6930
9.692113 0.6830 0.6700 0.6580 0.6530 0.6420
9.726000 0.6300 0.6170 0.6030 0.5900 0.5730
9.760113 0.5570 0.5390 0.5200 0.4980 0.4760
9.794000 0.4500 0.4250 0.3960 0.3650 0.3330
9.828113 0.2970 0.2580 0.2410 0.2190 0.1930
9.863000 0.1700 0.1440 0.1200 0.1020 0.0860
9.897113 0.0780 0.0680 0.0570 0.0450 0.0390
9.931000 0.0320 0.0300 0.0250 0.0230 0.0230
9.965113 0.0230 0.0230 0.0230 0.0230 0.0270
9.999000 0.0320 0.0420 0.0570 0.0740 0.0910
10.033113 0.1150 0.1410 0.1680 0.1930 0.2210
10.067000 0.2460 0.2730 0.2990 0.3230 0.3460
10.101113 0.3690 0.3870 0.4060 0.4210 0.4350
10.135000 0.4430 0.4540 0.4600 0.4670 0.4740
10.169113 0.4810 0.4890 0.4890 0.4910 0.4930
10.204000 0.4940 0.4930 0.4910 0.4910 0.4840
10.238113 0.4770 0.4710 0.4600 0.4540 0.4470
10.272000 0.4330 0.4260 0.4160 0.4030 0.3870
10.306113 0.3750 0.3620 0.3460 0.3290 0.3140
10.340000 0.2990 0.2820 0.2670 0.2500 0.2320
10.374113 0.2170 0.2050 0.1930 0.1780 0.1630
10.408000 0.1470 0.1360 0.1270 0.1190 0.1130
10.442113 0.1120 0.1100 0.1100 0.1070 0.1030
10.476000 0.1030 0.1020 0.1020 0.1000 0.0950
10.510113 0.0900 0.0850 0.0810 0.0760 0.0660
10.545000 0.0620 0.0540 0.0520 0.0510 0.0450
10.579113 0.0370 0.0320 0.0280 0.0250 0.0220
10.613000 0.0200 0.0180 0.0180 0.0180 0.0180
10.647113 0.0180 0.0170 0.0170 0.0130 0.0130
10.681000 0.0130 0.0130 0.0150 0.0170 0.0170
10.715113 0.0170 0.0170 0.0130 0.0130 0.0130
10.749000 0.0130 0.0130 0.0180 0.0200 0.0220
10.783113 0.0230 0.0270 0.0350 0.0490 0.0680
10.817000 0.0850 0.1020 0.1220 0.1420 0.1630
10.851113 0.1780 0.1980 0.2270 0.2630 0.2970
10.886000 0.3290 0.3530 0.3820 0.4090 0.4330
10.920113 0.4590 0.4820 0.5050 0.5270 0.5490
10.954000 0.5680 0.5860 0.6000 0.6100 0.6150
10.988113 0.6200 0.6340 0.6560 0.6700 0.6780
11.022000 0.6850 0.6880 0.6930 0.6980 0.7040
11.056113 0.7070 0.7120 0.7170 0.7240 0.7310
11.090000 0.7310 0.7340 0.7360 0.7390 0.7410
11.124113 0.7410 0.7410 0.7430 0.7440 0.7480
11.158000 0.7510 0.7510 0.7510 0.7530 0.7530
11.192113 0.7530 0.7530 0.7510 0.7500 0.7480
11.226000 0.7460 0.7430 0.7390 0.7360 0.7290
11.260113 0.7220 0.7140 0.7040 0.6930 0.6880
11.295000 0.6780 0.6700 0.6630 0.6540 0.6470
11.329113 0.6420 0.6410 0.6370 0.6370 0.6390
11.363000 0.6460 0.6540 0.6660 0.6750 0.6870
11.397113 0.7020 0.7140 0.7260 0.7340 0.7430
11.431000 0.7500 0.7580 0.7650 0.7720 0.7770
11.465113 0.7840 0.7920 0.7940 0.7990 0.8020
11.499000 0.8040 0.8040 0.8060 0.8120 0.8140
11.533113 0.8160 0.8210 0.8210 0.8230 0.8230
11.567000 0.8240 0.8260 0.8260 0.8280 0.8310
11.601113 0.8310 0.8310 0.8310 0.8310 0.8310
11.636000 0.8310 0.8310 0.8310 0.8310 0.8310
11.670113 0.8310 0.8310 0.8290 0.8290 0.8280
11.704000 0.8260 0.8240 0.8230 0.8210 0.8180
11.738113 0.8160 0.8140 0.8090 0.8060 0.8020
11.772000 0.8010 0.7970 0.7920 0.7840 0.7730
11.806113 0.7560 0.7510 0.7500 0.7410 0.7320
11.840000 0.7260 0.7210 0.7140 0.7050 0.6980
11.874113 0.6880 0.6810 0.6750 0.6700 0.6640
11.908000 0.6610 0.6560 0.6560 0.6540 0.6540
11.942113 0.6530 0.6530 0.6530 0.6540 0.6560
11.977000 0.6590 0.6640 0.6700 0.6800 0.6880
12.011113 0.6970 0.7020 0.7090 0.7140 0.7220
12.045000 0.7290 0.7310 0.7390 0.7430 0.7500
12.079113 0.7510 0.7530 0.7550 0.7600 0.7610
12.113000 0.7630 0.7650 0.7670 0.7680 0.7700
12.147113 0.7720 0.7730 0.7750 0.7770 0.7800
12.181000 0.7800 0.7800 0.7800 0.7800 0.7770
12.215113 0.7770 0.7730 0.7730 0.7720 0.7700
12.249000 0.7700 0.7670 0.7650 0.7630 0.7600
12.283113 0.7550 0.7510 0.7480 0.7460 0.7430
12.318000 0.7410 0.7380 0.7320 0.7310 0.7260
12.352113 0.7240 0.7210 0.7150 0.7100 0.7040
12.386000 0.7020 0.6970 0.6920 0.6870 0.6760
12.420113 0.6710 0.6640 0.6610 0.6540 0.6470
12.454000 0.6390 0.6270 0.6200 0.6080 0.6020
12.488113 0.5910 0.5810 0.5690 0.5570 0.5420
12.522000 0.5280 0.5110 0.4960 0.4810 0.4640
12.556113 0.4470 0.4300 0.4140 0.3970 0.3790
12.590000 0.3630 0.3520 0.3280 0.3010 0.2780
12.624113 0.2630 0.2500 0.2390 0.2270 0.2140
12.659000 0.2000 0.1900 0.1780 0.1680 0.1590
12.693113 0.1490 0.1390 0.1290 0.1220 0.1130
12.727000 0.1080 0.1020 0.0980 0.0880 0.0830
12.761113 0.0790 0.0760 0.0730 0.0710 0.0710
12.795000 0.0680 0.0660 0.0640 0.0640 0.0620
12.829113 0.0640 0.0640 0.0660 0.0660 0.0710
12.863000 0.0730 0.0830 0.0930 0.1030 0.1120
12.897113 0.1270 0.1370 0.1510 0.1660 0.1830
12.931000 0.2000 0.2210 0.2390 0.2600 0.2800
12.965113 0.2970 0.3120 0.3360 0.3450 0.3600
13.000000 0.3800 0.4030 0.4260 0.4480 0.4670
13.034113 0.4770 0.4960 0.5050 0.5170 0.5280
13.068000 0.5400 0.5510 0.5620 0.5730 0.5810
13.102113 0.5910 0.5980 0.6030 0.6120 0.6200
13.136000 0.6240 0.6300 0.6360 0.6440 0.6510
13.170113 0.6580 0.6630 0.6660 0.6710 0.6760
13.204000 0.6810 0.6870 0.6880 0.6920 0.6950
13.238113 0.7000 0.7020 0.7020 0.7040 0.7050
13.272000 0.7050 0.7100 0.7120 0.7120 0.7140
13.306113 0.7150 0.7190 0.7210 0.7220 0.7220
13.340000 0.7220 0.7240 0.7240 0.7240 0.7260
13.374113 0.7260 0.7260 0.7270 0.7270 0.7290
13.409000 0.7290 0.7310 0.7310 0.7290 0.7270
13.443113 0.7270 0.7270 0.7260 0.7240 0.7240
13.477000 0.7240 0.7220 0.7210 0.7170 0.7150
13.511113 0.7120 0.7100 0.7070 0.7050 0.7020
13.545000 0.7000 0.6920 0.6850 0.6810 0.6760
13.579113 0.6750 0.6730 0.6710 0.6700 0.6660
13.613000 0.6630 0.6610 0.6590 0.6540 0.6510
13.647113 0.6490 0.6440 0.6410 0.6410 0.6370
13.681000 0.6370 0.6370 0.6370 0.6370 0.6370
13.715113 0.6390 0.6390 0.6410 0.6420 0.6440
13.750000 0.6460 0.6510 0.6510 0.6530 0.6560
13.784113 0.6590 0.6610 0.6640 0.6680 0.6730
13.818000 0.6750 0.6760 0.6800 0.6850 0.6880
13.852113 0.6920 0.6930 0.6950 0.7000 0.7020
13.886000 0.7040 0.7050 0.7070 0.7070 0.7100
13.920113 0.7120 0.7120 0.7120 0.7120 0.7140
13.954000 0.7140 0.7140 0.7140 0.7140 0.7150
13.988113 0.7150 0.7150 0.7140 0.7140 0.7120
14.022000 0.7120 0.7120 0.7120 0.7120 0.7100
14.056113 0.7090 0.7090 0.7070 0.7040 0.7020
14.091000 0.7000 0.6950 0.6930 0.6900 0.6870
14.125113 0.6830 0.6810 0.6800 0.6760 0.6750
14.159000 0.6730 0.6710 0.6700 0.6680 0.6660
14.193113 0.6640 0.6630 0.6630 0.6610 0.6590
14.227000 0.6590 0.6590 0.6590 0.6590 0.6590
14.261113 0.6590 0.6590 0.6590 0.6590 0.6580
14.295000 0.6560 0.6560 0.6560 0.6540 0.6540
14.329113 0.6540 0.6530 0.6540 0.6530 0.6530
14.363000 0.6510 0.6490 0.6490 0.6490 0.6470
14.397113 0.6460 0.6420 0.6410 0.6390 0.6360
14.432000 0.6340 0.6300 0.6290 0.6240 0.6220
14.466113 0.6200 0.6190 0.6170 0.6130 0.6100
14.500000 0.6050 0.6020 0.6030 0.6020 0.6000
14.534113 0.5930 0.5910 0.5900 0.5850 0.5790
14.568000 0.5740 0.5690 0.5620 0.5610 0.5540
14.602113 0.5470 0.5400 0.5340 0.5270 0.5220
14.636000 0.5170 0.5110 0.5050 0.5000 0.4910
14.670113 0.4820 0.4710 0.4600 0.4540 0.4470
14.704000 0.4370 0.4300 0.4210 0.4130 0.4030
14.738113 0.3960 0.3840 0.3740 0.3630 0.3460
14.773000 0.3330 0.3240 0.3160 0.3070 0.2950
14.807113 0.2820 0.2720 0.2560 0.2510 0.2430
14.841000 0.2340 0.2260 0.2190 0.2100 0.2020
14.875113 0.2000 0.1930 0.1900 0.1880 0.1850
14.909000 0.1830 0.1810 0.1810 0.1800 0.1810
14.943113 0.1810 0.1810 0.1830 0.1830 0.1850
14.977000 0.1880 0.1930 0.1970 0.1980 0.2000
15.011113 0.2040 0.2050 0.2050 0.2100 0.2100
15.045000 0.2140 0.2170 0.2190 0.2190 0.2210
15.079113 0.2260 0.2340 0.2410 0.2480 0.2550
15.113000 0.2650 0.2720 0.2800 0.2900 0.3020
15.147113 0.3140 0.3280 0.3380 0.3480 0.3570
15.182000 0.3650 0.3740 0.3820 0.3940 0.4040
15.216113 0.4140 0.4230 0.4300 0.4330 0.4420
15.250000 0.4470 0.4540 0.4620 0.4670 0.4720
15.284113 0.4760 0.4820 0.4880 0.4910 0.4940
15.318000 0.4980 0.5010 0.5060 0.5100 0.5130
15.352113 0.5150 0.5170 0.5200 0.5220 0.5250
15.386000 0.5270 0.5280 0.5300 0.5320 0.5340
15.420113 0.5350 0.5350 0.5370 0.5390 0.5400
15.454000 0.5420 0.5420 0.5440 0.5450 0.5450
15.488113 0.5470 0.5470 0.5490 0.5490 0.5510
15.523000 0.5520 0.5540 0.5540 0.5560 0.5560
15.557113 0.5560 0.5570 0.5570 0.5590 0.5590
15.591000 0.5590 0.5590 0.5610 0.5610 0.5610
15.625113 0.5620 0.5620 0.5620 0.5640 0.5640
15.659000 0.5640 0.5660 0.5660 0.5660 0.5680
15.693113 0.5680 0.5680 0.5680 0.5690 0.5690
15.727000 0.5690 0.5690 0.5690 0.5710 0.5710
15.761113 0.5710 0.5710 0.5730 0.5730 0.5740
15.795000 0.5740 0.5740 0.5740 0.5740 0.5740
15.829113 0.5730 0.5740 0.5740 0.5740 0.5740
15.864000 0.5740 0.5760 0.5760 0.5760 0.5780
15.898113 0.5780 0.5790 0.5780 0.5790 0.5790
15.932000 0.5790 0.5810 0.5810 0.5810 0.5830
15.966113 0.5830 0.5810 0.5810 0.5810
##END=
