##TITLE=3-CHLORO-1-BUTYNE
##JCAMP-DX=4.24
##DATA TYPE=INFRARED SPECTRUM
##CLASS=COBLENTZ
##ORIGIN=ABBOTT LABORATORIES - WASHBURN
##OWNER=COBLENTZ SOCIETY
Collection (C) 2018 copyright by the U.S. Secretary of Commerce
on behalf of the United States of America. All rights reserved.
##DATE=Not specified, most likely prior to 1970
##CAS REGISTRY NO=21020-24-6
##MOLFORM=C4 H5 Cl
##SOURCE REFERENCE=COBLENTZ NO. 3370
##$NIST SOURCE=COBLENTZ
##$NIST IMAGE=cob3370
##SPECTROMETER/DATA SYSTEM=PERKIN-ELMER
##STATE=SOLUTION (7% IN CHCl3)
##PATH LENGTH=0.010 CM CELL
$$ INACTIVE (CHCl3) AROUND 750 CM^-^1
##SAMPLING PROCEDURE=TRANSMISSION
##RESOLUTION=4
##DATA PROCESSING=DIGITIZED BY NIST FROM HARD COPY (FROM TWO SEGMENTS)
##XUNITS=MICROMETERS
##YUNITS=TRANSMITTANCE
##XFACTOR=1.000000
##YFACTOR=1
##DELTAX=0.006631
##FIRSTX=2.062
##LASTX=15.4301
##FIRSTY=0.901
##MAXX=15.4301
##MINX=2.062
##MAXY=0.97
##MINY=0.243
##NPOINTS=2017
##XYDATA=(X++(Y..Y))
2.062000 0.9010 0.9010 0.9030 0.9030 0.9030
2.095155 0.9050 0.9050 0.9060 0.9060 0.9060
2.128310 0.9078 0.9098 0.9100 0.9100 0.9109
2.161465 0.9110 0.9110 0.9128 0.9130 0.9130
2.194620 0.9149 0.9150 0.9150 0.9150 0.9150
2.227775 0.9150 0.9150 0.9150 0.9150 0.9150
2.260930 0.9160 0.9160 0.9160 0.9180 0.9180
2.294085 0.9180 0.9180 0.9180 0.9180 0.9180
2.327240 0.9180 0.9180 0.9180 0.9180 0.9180
2.360395 0.9163 0.9160 0.9160 0.9160 0.9160
2.393550 0.9160 0.9160 0.9160 0.9160 0.9160
2.426705 0.9160 0.9178 0.9180 0.9180 0.9198
2.459860 0.9200 0.9210 0.9229 0.9249 0.9250
2.493015 0.9231 0.9230 0.9249 0.9250 0.9250
2.526170 0.9250 0.9250 0.9233 0.9230 0.9213
2.559325 0.9201 0.9200 0.9200 0.9200 0.9226
2.592480 0.9230 0.9258 0.9297 0.9327 0.9357
2.625635 0.9360 0.9360 0.9360 0.9378 0.9380
2.658790 0.9380 0.9380 0.9361 0.9360 0.9379
2.691945 0.9380 0.9380 0.9380 0.9380 0.9361
2.725100 0.9360 0.9360 0.9360 0.9350 0.9360
2.758255 0.9360 0.9360 0.9360 0.9360 0.9360
2.791410 0.9360 0.9360 0.9351 0.9350 0.9350
2.824565 0.9332 0.9312 0.9328 0.9312 0.9310
2.857720 0.9310 0.9300 0.9300 0.9300 0.9281
2.890875 0.9280 0.9280 0.9280 0.9299 0.9300
2.924030 0.9310 0.9330 0.9330 0.9330 0.9310
2.957185 0.9300 0.9280 0.9260 0.9250 0.9211
2.990340 0.9065 0.8376 0.7816 0.7331 0.6834
3.023495 0.6220 0.5352 0.4569 0.3801 0.3710
3.056650 0.4314 0.6675 0.7329 0.7736 0.8060
3.089805 0.8295 0.8534 0.8783 0.8939 0.8959
3.122960 0.9049 0.9100 0.9130 0.9150 0.9199
3.156115 0.9249 0.9279 0.9309 0.9330 0.9349
3.189270 0.9359 0.9378 0.9398 0.9400 0.9400
3.222425 0.9400 0.9400 0.9409 0.9427 0.9430
3.255580 0.9411 0.9410 0.9410 0.9410 0.9410
3.288735 0.9429 0.9412 0.9410 0.9410 0.9401
3.321890 0.9400 0.9331 0.9154 0.8623 0.8113
3.355045 0.7565 0.7434 0.7430 0.7507 0.7837
3.388200 0.8054 0.8212 0.8317 0.8391 0.8400
3.421355 0.8383 0.8397 0.8452 0.8581 0.8694
3.454510 0.8820 0.8895 0.8928 0.8948 0.8959
3.487665 0.8978 0.9007 0.9028 0.9057 0.9096
3.520820 0.9149 0.9199 0.9248 0.9308 0.9358
3.553975 0.9398 0.9429 0.9449 0.9479 0.9499
3.587130 0.9509 0.9527 0.9530 0.9547 0.9550
3.620285 0.9559 0.9560 0.9560 0.9560 0.9560
3.653440 0.9560 0.9578 0.9580 0.9580 0.9598
3.686595 0.9609 0.9628 0.9648 0.9650 0.9650
3.719750 0.9650 0.9650 0.9660 0.9660 0.9660
3.752905 0.9679 0.9680 0.9680 0.9680 0.9680
3.786060 0.9660 0.9660 0.9660 0.9660 0.9700
3.819215 0.9700 0.9700 0.9700 0.9700 0.9700
3.852370 0.9682 0.9680 0.9680 0.9680 0.9662
3.885525 0.9660 0.9651 0.9650 0.9650 0.9650
3.918680 0.9659 0.9660 0.9660 0.9660 0.9660
3.951835 0.9660 0.9660 0.9660 0.9660 0.9679
3.984990 0.9660 0.9660 0.9660 0.9660 0.9660
4.018145 0.9660 0.9660 0.9660 0.9650 0.9650
4.051300 0.9632 0.9612 0.9601 0.9582 0.9580
4.084455 0.9562 0.9551 0.9550 0.9550 0.9550
4.117610 0.9550 0.9550 0.9513 0.9501 0.9481
4.150765 0.9480 0.9461 0.9460 0.9451 0.9432
4.183920 0.9430 0.9430 0.9430 0.9430 0.9450
4.217075 0.9450 0.9450 0.9460 0.9460 0.9499
4.250230 0.9509 0.9528 0.9530 0.9548 0.9550
4.283385 0.9550 0.9550 0.9550 0.9550 0.9550
4.316540 0.9550 0.9550 0.9550 0.9550 0.9550
4.349695 0.9550 0.9550 0.9532 0.9530 0.9530
4.382850 0.9530 0.9510 0.9500 0.9500 0.9500
4.416005 0.9481 0.9480 0.9480 0.9461 0.9450
4.449160 0.9450 0.9450 0.9450 0.9450 0.9433
4.482315 0.9447 0.9450 0.9433 0.9413 0.9410
4.515470 0.9410 0.9410 0.9410 0.9410 0.9401
4.548625 0.9409 0.9410 0.9410 0.9410 0.9410
4.581780 0.9410 0.9410 0.9410 0.9410 0.9400
4.614935 0.9400 0.9400 0.9400 0.9381 0.9399
4.648090 0.9383 0.9380 0.9363 0.9351 0.9350
4.681245 0.9316 0.9285 0.9212 0.9124 0.9000
4.714400 0.8863 0.8814 0.8801 0.8854 0.8950
4.747555 0.9041 0.9095 0.9127 0.9157 0.9196
4.780710 0.9210 0.9229 0.9249 0.9250 0.9259
4.813865 0.9260 0.9279 0.9280 0.9280 0.9280
4.847020 0.9280 0.9280 0.9280 0.9280 0.9280
4.880175 0.9300 0.9310 0.9280 0.9280 0.9280
4.913330 0.9298 0.9300 0.9300 0.9300 0.9300
4.946485 0.9300 0.9309 0.9310 0.9310 0.9310
4.979640 0.9329 0.9330 0.9311 0.9310 0.9310
5.012795 0.9310 0.9301 0.9282 0.9263 0.9252
5.045950 0.9250 0.9250 0.9250 0.9250 0.9250
5.079105 0.9250 0.9250 0.9250 0.9250 0.9250
5.112260 0.9250 0.9250 0.9250 0.9250 0.9250
5.145415 0.9250 0.9250 0.9257 0.9273 0.9267
5.178570 0.9273 0.9280 0.9292 0.9318 0.9330
5.211725 0.9318 0.9310 0.9304 0.9300 0.9300
5.244880 0.9300 0.9300 0.9300 0.9300 0.9300
5.278035 0.9300 0.9293 0.9280 0.9280 0.9280
5.311190 0.9286 0.9300 0.9300 0.9300 0.9300
5.344345 0.9295 0.9280 0.9284 0.9300 0.9300
5.377500 0.9300 0.9300 0.9300 0.9300 0.9297
5.410655 0.9280 0.9280 0.9280 0.9285 0.9330
5.443810 0.9329 0.9310 0.9309 0.9279 0.9260
5.476965 0.9261 0.9280 0.9280 0.9300 0.9300
5.510120 0.9281 0.9280 0.9280 0.9280 0.9299
5.543275 0.9300 0.9282 0.9262 0.9260 0.9278
5.576430 0.9306 0.9310 0.9310 0.9302 0.9308
5.609585 0.9310 0.9310 0.9310 0.9310 0.9310
5.642740 0.9310 0.9310 0.9310 0.9303 0.9300
5.675895 0.9288 0.9269 0.9260 0.9260 0.9260
5.709050 0.9255 0.9250 0.9250 0.9250 0.9250
5.742205 0.9250 0.9250 0.9250 0.9250 0.9250
5.775360 0.9250 0.9250 0.9250 0.9243 0.9204
5.808515 0.9141 0.9117 0.9130 0.9130 0.9130
5.841670 0.9145 0.9180 0.9174 0.9160 0.9157
5.874825 0.9150 0.9150 0.9150 0.9150 0.9150
5.907980 0.9150 0.9150 0.9143 0.9108 0.9100
5.941135 0.9100 0.9102 0.9116 0.9147 0.9130
5.974290 0.9128 0.9112 0.9132 0.9150 0.9149
6.007445 0.9131 0.9150 0.9150 0.9150 0.9150
6.040600 0.9160 0.9160 0.9199 0.9210 0.9210
6.073755 0.9210 0.9210 0.9210 0.9210 0.9202
6.106910 0.9170 0.9153 0.9150 0.9150 0.9150
6.140065 0.9157 0.9160 0.9153 0.9137 0.9130
6.173220 0.9130 0.9130 0.9130 0.9148 0.9160
6.206375 0.9130 0.9110 0.9122 0.9130 0.9130
6.239530 0.9130 0.9130 0.9130 0.9130 0.9130
6.272685 0.9130 0.9130 0.9130 0.9139 0.9150
6.305840 0.9141 0.9130 0.9130 0.9138 0.9150
6.338995 0.9154 0.9160 0.9168 0.9180 0.9180
6.372150 0.9180 0.9170 0.9150 0.9150 0.9150
6.405305 0.9150 0.9150 0.9153 0.9165 0.9180
6.438460 0.9180 0.9176 0.9160 0.9160 0.9160
6.471615 0.9160 0.9160 0.9160 0.9160 0.9160
6.504770 0.9160 0.9160 0.9150 0.9150 0.9150
6.537925 0.9113 0.9110 0.9101 0.9100 0.9100
6.571080 0.9109 0.9110 0.9110 0.9110 0.9110
6.604235 0.9102 0.9083 0.9064 0.9060 0.9052
6.637390 0.9050 0.9050 0.9058 0.9075 0.9080
6.670545 0.9080 0.9080 0.9080 0.9066 0.9060
6.703700 0.9087 0.9100 0.9100 0.9100 0.9100
6.736855 0.9100 0.9100 0.9088 0.9062 0.9038
6.770010 0.9019 0.9010 0.9010 0.9010 0.9005
6.803165 0.9005 0.9010 0.9010 0.9005 0.8990
6.836320 0.8971 0.8955 0.8941 0.8909 0.8872
6.869475 0.8820 0.8750 0.8722 0.8658 0.8467
6.902630 0.8203 0.7920 0.7518 0.7109 0.6975
6.935785 0.6770 0.6537 0.6067 0.5560 0.5569
6.968940 0.5694 0.6214 0.6543 0.6904 0.7219
7.002095 0.7513 0.7769 0.8022 0.8233 0.8301
7.035250 0.8351 0.8400 0.8499 0.8558 0.8598
7.068405 0.8600 0.8600 0.8609 0.8629 0.8658
7.101560 0.8696 0.8709 0.8728 0.8730 0.8747
7.134715 0.8758 0.8777 0.8797 0.8808 0.8826
7.167870 0.8830 0.8830 0.8830 0.8830 0.8830
7.201025 0.8845 0.8835 0.8830 0.8815 0.8767
7.234180 0.8715 0.8672 0.8606 0.8500 0.8310
7.267335 0.7962 0.7560 0.7339 0.7170 0.6775
7.300490 0.6401 0.6387 0.6712 0.7075 0.7218
7.333645 0.7527 0.7816 0.7999 0.8192 0.8296
7.366800 0.8378 0.8444 0.8533 0.8602 0.8653
7.399955 0.8660 0.8660 0.8660 0.8660 0.8660
7.433110 0.8660 0.8658 0.8641 0.8608 0.8596
7.466265 0.8580 0.8580 0.8580 0.8577 0.8560
7.499420 0.8560 0.8560 0.8559 0.8548 0.8528
7.532575 0.8510 0.8510 0.8508 0.8478 0.8449
7.565730 0.8429 0.8410 0.8400 0.8400 0.8360
7.598885 0.8311 0.8233 0.8107 0.7984 0.7885
7.632040 0.7692 0.7522 0.7364 0.6972 0.6593
7.665195 0.6375 0.6264 0.6191 0.6195 0.6340
7.698350 0.6476 0.6625 0.6799 0.6905 0.6974
7.731505 0.7062 0.7118 0.7201 0.7286 0.7352
7.764660 0.7398 0.7421 0.7441 0.7455 0.7460
7.797815 0.7460 0.7460 0.7455 0.7450 0.7440
7.830970 0.7430 0.7430 0.7430 0.7430 0.7430
7.864125 0.7430 0.7438 0.7450 0.7450 0.7454
7.897280 0.7475 0.7511 0.7541 0.7577 0.7626
7.930435 0.7682 0.7739 0.7766 0.7794 0.7839
7.963590 0.7874 0.7921 0.7953 0.7965 0.7987
7.996745 0.8018 0.8056 0.8084 0.8102 0.8114
8.029900 0.8139 0.8180 0.8184 0.8210 0.8209
8.063055 0.8200 0.8198 0.8180 0.8179 0.8161
8.096210 0.8160 0.8151 0.8114 0.8101 0.8039
8.129365 0.7987 0.7938 0.7847 0.7707 0.7489
8.162520 0.7286 0.7129 0.6989 0.6897 0.6842
8.195675 0.6770 0.6661 0.6579 0.6553 0.6514
8.228830 0.6471 0.6453 0.6450 0.6450 0.6457
8.261985 0.6460 0.6460 0.6460 0.6460 0.6460
8.295140 0.6472 0.6492 0.6500 0.6506 0.6510
8.328295 0.6521 0.6530 0.6556 0.6590 0.6605
8.361450 0.6661 0.6770 0.6893 0.7026 0.7160
8.394605 0.7310 0.7518 0.7710 0.7813 0.7901
8.427760 0.8038 0.8154 0.8214 0.8378 0.8542
8.460915 0.8617 0.8667 0.8703 0.8725 0.8778
8.494070 0.8838 0.8883 0.8901 0.8910 0.8910
8.527225 0.8912 0.8932 0.8950 0.8951 0.8961
8.560380 0.8980 0.8981 0.9000 0.9000 0.9000
8.593535 0.9030 0.9050 0.9060 0.9079 0.9099
8.626690 0.9110 0.9110 0.9110 0.9101 0.9100
8.659845 0.9100 0.9100 0.9100 0.9100 0.9108
8.693000 0.9102 0.9100 0.9108 0.9110 0.9110
8.726155 0.9110 0.9102 0.9100 0.9100 0.9100
8.759310 0.9100 0.9107 0.9103 0.9100 0.9100
8.792465 0.9100 0.9100 0.9100 0.9106 0.9110
8.825620 0.9110 0.9110 0.9110 0.9110 0.9104
8.858775 0.9100 0.9100 0.9100 0.9100 0.9100
8.891930 0.9100 0.9100 0.9100 0.9093 0.9080
8.925085 0.9080 0.9080 0.9080 0.9071 0.9036
8.958240 0.8995 0.8980 0.8975 0.8952 0.8925
8.991395 0.8908 0.8896 0.8866 0.8804 0.8777
9.024550 0.8755 0.8725 0.8700 0.8690 0.8616
9.057705 0.8526 0.8495 0.8446 0.8410 0.8403
9.090860 0.8304 0.8188 0.8020 0.7849 0.7621
9.124015 0.7339 0.6776 0.6105 0.5816 0.4766
9.157170 0.4158 0.3907 0.3881 0.3899 0.4040
9.190325 0.4490 0.5090 0.5310 0.6356 0.6552
9.223480 0.6637 0.6866 0.6968 0.7047 0.7217
9.256635 0.7299 0.7382 0.7408 0.7441 0.7458
9.289790 0.7460 0.7361 0.7051 0.6615 0.6303
9.322945 0.6052 0.5776 0.5495 0.5224 0.5217
9.356100 0.5489 0.5615 0.5555 0.5515 0.5500
9.389255 0.5574 0.5745 0.5919 0.6132 0.6426
9.422410 0.6697 0.6897 0.7060 0.7208 0.7396
9.455565 0.7621 0.7747 0.7820 0.7910 0.7960
9.488720 0.8050 0.8100 0.8129 0.8217 0.8265
9.521875 0.8280 0.8287 0.8321 0.8364 0.8384
9.555030 0.8402 0.8410 0.8410 0.8414 0.8430
9.588185 0.8430 0.8433 0.8451 0.8462 0.8480
9.621340 0.8482 0.8500 0.8500 0.8502 0.8530
9.654495 0.8529 0.8510 0.8510 0.8510 0.8510
9.687650 0.8510 0.8510 0.8510 0.8510 0.8510
9.720805 0.8501 0.8500 0.8500 0.8500 0.8509
9.753960 0.8545 0.8550 0.8558 0.8560 0.8560
9.787115 0.8574 0.8580 0.8593 0.8620 0.8630
9.820270 0.8643 0.8650 0.8650 0.8650 0.8638
9.853425 0.8630 0.8630 0.8630 0.8630 0.8641
9.886580 0.8639 0.8620 0.8595 0.8570 0.8560
9.919735 0.8560 0.8555 0.8550 0.8550 0.8541
9.952890 0.8522 0.8506 0.8484 0.8439 0.8410
9.986045 0.8406 0.8385 0.8342 0.8289 0.8203
10.019200 0.8084 0.7962 0.7780 0.7663 0.7477
10.052355 0.7186 0.6917 0.6784 0.6542 0.6083
10.085510 0.5571 0.5195 0.4941 0.4680 0.4222
10.118665 0.3887 0.3825 0.3802 0.3848 0.4128
10.151820 0.4515 0.5045 0.5371 0.5600 0.5723
10.184975 0.5916 0.6068 0.6622 0.6903 0.7176
10.218130 0.7245 0.7361 0.7422 0.7472 0.7547
10.251285 0.7701 0.7811 0.7886 0.7939 0.8012
10.284440 0.8106 0.8190 0.8276 0.8322 0.8345
10.317595 0.8350 0.8357 0.8360 0.8360 0.8373
10.350750 0.8400 0.8442 0.8460 0.8473 0.8493
10.383905 0.8506 0.8534 0.8568 0.8621 0.8667
10.417060 0.8680 0.8680 0.8691 0.8727 0.8766
10.450215 0.8790 0.8805 0.8820 0.8830 0.8830
10.483370 0.8839 0.8850 0.8850 0.8850 0.8841
10.516525 0.8830 0.8830 0.8830 0.8838 0.8850
10.549680 0.8850 0.8853 0.8866 0.8886 0.8902
10.582835 0.8910 0.8913 0.8930 0.8930 0.8927
10.615990 0.8900 0.8901 0.8910 0.8910 0.8910
10.649145 0.8910 0.8910 0.8910 0.8910 0.8910
10.682300 0.8910 0.8910 0.8910 0.8910 0.8910
10.715455 0.8910 0.8910 0.8929 0.8912 0.8910
10.748610 0.8901 0.8900 0.8900 0.8900 0.8900
10.781765 0.8900 0.8900 0.8900 0.8900 0.8884
10.814920 0.8880 0.8880 0.8880 0.8880 0.8880
10.848075 0.8880 0.8865 0.8860 0.8853 0.8850
10.881230 0.8836 0.8830 0.8830 0.8817 0.8810
10.914385 0.8810 0.8810 0.8810 0.8810 0.8810
10.947540 0.8792 0.8780 0.8791 0.8800 0.8805
10.980695 0.8810 0.8810 0.8810 0.8806 0.8800
11.013850 0.8800 0.8800 0.8800 0.8800 0.8800
11.047005 0.8800 0.8800 0.8800 0.8800 0.8795
11.080160 0.8780 0.8780 0.8776 0.8760 0.8760
11.113315 0.8760 0.8760 0.8760 0.8760 0.8760
11.146470 0.8760 0.8760 0.8760 0.8760 0.8760
11.179625 0.8760 0.8760 0.8760 0.8760 0.8760
11.212780 0.8760 0.8760 0.8760 0.8780 0.8780
11.245935 0.8760 0.8760 0.8760 0.8779 0.8780
11.279090 0.8780 0.8780 0.8780 0.8780 0.8780
11.312245 0.8780 0.8780 0.8780 0.8763 0.8752
11.345400 0.8750 0.8718 0.8710 0.8710 0.8702
11.378555 0.8700 0.8688 0.8680 0.8668 0.8654
11.411710 0.8650 0.8656 0.8660 0.8660 0.8660
11.444865 0.8655 0.8650 0.8650 0.8640 0.8630
11.478020 0.8630 0.8630 0.8630 0.8621 0.8610
11.511175 0.8610 0.8606 0.8600 0.8592 0.8550
11.544330 0.8482 0.8425 0.8356 0.8307 0.8294
11.577485 0.8274 0.8244 0.8192 0.8136 0.8081
11.610640 0.8017 0.7960 0.7865 0.7728 0.7608
11.643795 0.7416 0.7255 0.7118 0.6913 0.6721
11.676950 0.6556 0.6391 0.6099 0.5632 0.5117
11.710105 0.4998 0.4860 0.4681 0.4490 0.4371
11.743260 0.4249 0.4231 0.4255 0.4413 0.4580
11.776415 0.4748 0.4846 0.5063 0.5233 0.5865
11.809570 0.6008 0.6121 0.6251 0.6372 0.6475
11.842725 0.6633 0.6852 0.6962 0.7038 0.7160
11.875880 0.7242 0.7356 0.7501 0.7623 0.7725
11.909035 0.7785 0.7806 0.7868 0.7919 0.7948
11.942190 0.8002 0.8089 0.8147 0.8160 0.8209
11.975345 0.8255 0.8260 0.8271 0.8296 0.8320
12.008500 0.8355 0.8390 0.8428 0.8469 0.8489
12.041655 0.8504 0.8510 0.8510 0.8510 0.8510
12.074810 0.8526 0.8550 0.8554 0.8560 0.8567
12.107965 0.8580 0.8580 0.8580 0.8586 0.8603
12.141120 0.8616 0.8636 0.8653 0.8660 0.8660
12.174275 0.8660 0.8660 0.8660 0.8661 0.8681
12.207430 0.8700 0.8700 0.8700 0.8700 0.8710
12.240585 0.8710 0.8729 0.8730 0.8749 0.8750
12.273740 0.8750 0.8750 0.8750 0.8750 0.8732
12.306895 0.8730 0.8730 0.8747 0.8750 0.8733
12.340050 0.8730 0.8746 0.8750 0.8750 0.8750
12.373205 0.8750 0.8750 0.8750 0.8750 0.8750
12.406360 0.8750 0.8750 0.8750 0.8750 0.8750
12.439515 0.8750 0.8750 0.8750 0.8757 0.8760
12.472670 0.8760 0.8760 0.8772 0.8798 0.8810
12.505825 0.8810 0.8821 0.8830 0.8830 0.8830
12.538980 0.8830 0.8830 0.8840 0.8850 0.8850
12.572135 0.8855 0.8860 0.8860 0.8866 0.8880
12.605290 0.8875 0.8860 0.8865 0.8880 0.8880
12.638445 0.8884 0.8902 0.8910 0.8910 0.8910
12.671600 0.8910 0.8910 0.8910 0.8910 0.8909
12.704755 0.8900 0.8900 0.8900 0.8900 0.8900
12.737910 0.8900 0.8900 0.8900 0.8900 0.8900
12.771065 0.8900 0.8900 0.8900 0.8900 0.8900
12.804220 0.8900 0.8900 0.8900 0.8900 0.8900
12.837375 0.8900 0.8900 0.8900 0.8900 0.8900
12.870530 0.8900 0.8900 0.8900 0.8900 0.8900
12.903685 0.8900 0.8900 0.8900 0.8900 0.8900
12.936840 0.8900 0.8900 0.8900 0.8900 0.8900
12.969995 0.8900 0.8900 0.8900 0.8900 0.8900
13.003150 0.8900 0.8900 0.8900 0.8900 0.8900
13.036305 0.8900 0.8900 0.8900 0.8900 0.8904
13.069460 0.8910 0.8918 0.8930 0.8930 0.8937
13.102615 0.8950 0.8950 0.8953 0.8960 0.8960
13.135770 0.8960 0.8960 0.8960 0.8957 0.8950
13.168925 0.8945 0.8930 0.8930 0.8930 0.8926
13.202080 0.8914 0.8930 0.8926 0.8910 0.8913
13.235235 0.8930 0.8930 0.8932 0.8948 0.8930
13.268390 0.8930 0.8930 0.8930 0.8930 0.8930
13.301545 0.8931 0.8950 0.8950 0.8950 0.8930
13.334700 0.8930 0.8950 0.8950 0.8950 0.8931
13.367855 0.8930 0.8930 0.8930 0.8930 0.8930
13.401010 0.8930 0.8930 0.8930 0.8930 0.8930
13.434165 0.8930 0.8943 0.8937 0.8930 0.8930
13.467320 0.8930 0.8930 0.8930 0.8930 0.8930
13.500475 0.8930 0.8930 0.8930 0.8930 0.8930
13.533630 0.8930 0.8930 0.8930 0.8930 0.8930
13.566785 0.8930 0.8930 0.8930 0.8930 0.8930
13.599940 0.8930 0.8930 0.8930 0.8930 0.8930
13.633095 0.8930 0.8930 0.8923 0.8917 0.8923
13.666250 0.8910 0.8910 0.8910 0.8916 0.8930
13.699405 0.8935 0.8950 0.8950 0.8950 0.8950
13.732560 0.8950 0.8950 0.8950 0.8950 0.8946
13.765715 0.8930 0.8927 0.8910 0.8910 0.8910
13.798870 0.8910 0.8900 0.8910 0.8910 0.8910
13.832025 0.8910 0.8910 0.8910 0.8910 0.8910
13.865180 0.8910 0.8910 0.8910 0.8910 0.8910
13.898335 0.8910 0.8910 0.8910 0.8910 0.8910
13.931490 0.8910 0.8910 0.8910 0.8910 0.8910
13.964645 0.8910 0.8910 0.8910 0.8910 0.8903
13.997800 0.8887 0.8880 0.8880 0.8880 0.8880
14.030955 0.8880 0.8880 0.8880 0.8869 0.8860
14.064110 0.8854 0.8850 0.8839 0.8819 0.8795
14.097265 0.8770 0.8755 0.8750 0.8750 0.8750
14.130420 0.8750 0.8741 0.8730 0.8721 0.8710
14.163575 0.8706 0.8700 0.8693 0.8673 0.8643
14.196730 0.8593 0.8549 0.8530 0.8524 0.8510
14.229885 0.8510 0.8501 0.8475 0.8447 0.8390
14.263040 0.8320 0.8277 0.8246 0.8195 0.8127
14.296195 0.8079 0.8059 0.8030 0.8009 0.7931
14.329350 0.7910 0.7900 0.7811 0.7800 0.7762
14.362505 0.7751 0.7713 0.7682 0.7662 0.7678
14.395660 0.7662 0.7633 0.7604 0.7557 0.7473
14.428815 0.7435 0.7405 0.7367 0.7296 0.7264
14.461970 0.7252 0.7219 0.7202 0.7185 0.7157
14.495125 0.7113 0.7049 0.6980 0.6904 0.6846
14.528280 0.6817 0.6776 0.6726 0.6637 0.6568
14.561435 0.6537 0.6518 0.6504 0.6476 0.6396
14.594590 0.6270 0.6204 0.6171 0.6128 0.6094
14.627745 0.6069 0.6018 0.5914 0.5751 0.5626
14.660900 0.5581 0.5536 0.5477 0.5405 0.5344
14.694055 0.5293 0.5173 0.5075 0.4976 0.4891
14.727210 0.4839 0.4743 0.4673 0.4615 0.4470
14.760365 0.4425 0.4383 0.4279 0.4160 0.4154
14.793520 0.4103 0.4043 0.3978 0.3950 0.3856
14.826675 0.3809 0.3797 0.3758 0.3708 0.3660
14.859830 0.3660 0.3650 0.3650 0.3650 0.3630
14.892985 0.3630 0.3630 0.3649 0.3678 0.3680
14.926140 0.3707 0.3728 0.3757 0.3778 0.3798
14.959295 0.3809 0.3827 0.3847 0.3850 0.3858
14.992450 0.3876 0.3896 0.3900 0.3924 0.3946
15.025605 0.3973 0.3980 0.3995 0.4022 0.4044
15.058760 0.4071 0.4114 0.4148 0.4171 0.4191
15.091915 0.4216 0.4230 0.4220 0.4196 0.4166
15.125070 0.4141 0.4095 0.4011 0.3815 0.3621
15.158225 0.3544 0.3422 0.3295 0.3156 0.3114
15.191380 0.3015 0.2903 0.2807 0.2786 0.2750
15.224535 0.2724 0.2695 0.2651 0.2625 0.2607
15.257690 0.2595 0.2580 0.2576 0.2560 0.2560
15.290845 0.2554 0.2530 0.2530 0.2530 0.2530
15.324000 0.2530 0.2530 0.2528 0.2509 0.2498
15.357155 0.2478 0.2459 0.2450 0.2450 0.2450
15.390310 0.2450 0.2450 0.2450 0.2430 0.2430
15.423465 0.2430 0.2430
##END=
