##TITLE=2-CHLORO-1-BUTENE
##JCAMP-DX=4.24
##DATA TYPE=INFRARED SPECTRUM
##CLASS=COBLENTZ
##ORIGIN=W.T. BOLLETER
##OWNER=COBLENTZ SOCIETY
Collection (C) 2018 copyright by the U.S. Secretary of Commerce
on behalf of the United States of America. All rights reserved.
##DATE=Not specified, most likely prior to 1970
##CAS REGISTRY NO=2211-70-3
##MOLFORM=C4 H7 Cl
##SOURCE REFERENCE=COBLENTZ NO. 4511
##$NIST SOURCE=COBLENTZ
##$NIST IMAGE=cob4511
##SPECTROMETER/DATA SYSTEM=Not specified, most likely a prism, grating, or hybrid spectrometer.
##PATH LENGTH=0.0025 CM
##SAMPLING PROCEDURE=TRANSMISSION
##RESOLUTION=4
##DATA PROCESSING=DIGITIZED BY NIST FROM HARD COPY
##XUNITS=MICROMETERS
##YUNITS=TRANSMITTANCE
##XFACTOR=1.000000
##YFACTOR=1
##DELTAX=000.017516
##FIRSTX=14.511
##LASTX=36.9845
##FIRSTY=0.273
##MAXX=36.9845
##MINX=14.511
##MAXY=0.895
##MINY=0.047
##NPOINTS=1284
##XYDATA=(X++(Y..Y))
14.511000 0.2730 0.2710 0.2680 0.2620 0.2460
14.598648 0.2230 0.1980 0.1770 0.1560 0.1360
14.686000 0.1190 0.1060 0.0970 0.0900 0.0720
14.773648 0.0650 0.0620 0.0600 0.0580 0.0580
14.861000 0.0550 0.0550 0.0530 0.0530 0.0530
14.948648 0.0550 0.0550 0.0560 0.0580 0.0580
15.037000 0.0600 0.0630 0.0650 0.0720 0.0810
15.124648 0.1030 0.1130 0.1220 0.1330 0.1500
15.212000 0.1590 0.1770 0.1900 0.2000 0.2130
15.299648 0.2230 0.2360 0.2460 0.2520 0.2570
15.387000 0.2640 0.2680 0.2680 0.2690 0.2690
15.474648 0.2680 0.2620 0.2570 0.2520 0.2430
15.562000 0.2340 0.2250 0.2160 0.2070 0.1970
15.649648 0.1860 0.1750 0.1650 0.1560 0.1470
15.737000 0.1360 0.1260 0.1190 0.1110 0.1060
15.824648 0.1010 0.0920 0.0760 0.0690 0.0650
15.912000 0.0630 0.0620 0.0620 0.0600 0.0600
15.999648 0.0550 0.0550 0.0530 0.0530 0.0510
16.088000 0.0490 0.0490 0.0470 0.0470 0.0470
16.175648 0.0470 0.0470 0.0470 0.0470 0.0470
16.263000 0.0490 0.0490 0.0510 0.0510 0.0510
16.350648 0.0530 0.0530 0.0550 0.0550 0.0560
16.438000 0.0580 0.0600 0.0620 0.0650 0.0690
16.525648 0.0720 0.0780 0.0880 0.0920 0.0990
16.613000 0.1100 0.1190 0.1260 0.1380 0.1490
16.700648 0.1560 0.1720 0.1910 0.2060 0.2200
16.788000 0.2360 0.2520 0.2690 0.2850 0.3000
16.875648 0.3160 0.3320 0.3460 0.3580 0.3710
16.963000 0.3830 0.3960 0.4120 0.4280 0.4450
17.050648 0.4540 0.4600 0.4670 0.4720 0.4790
17.139000 0.4830 0.4840 0.4880 0.4900 0.4900
17.226648 0.4900 0.4900 0.4880 0.4840 0.4790
17.314000 0.4740 0.4680 0.4610 0.4560 0.4510
17.401648 0.4440 0.4310 0.4190 0.4040 0.3900
17.489000 0.3740 0.3570 0.3410 0.3210 0.3030
17.576648 0.2870 0.2710 0.2550 0.2410 0.2220
17.664000 0.2040 0.1910 0.1700 0.1520 0.1380
17.751648 0.1220 0.1130 0.1060 0.1010 0.0970
17.839000 0.0900 0.0870 0.0780 0.0720 0.0710
17.926648 0.0710 0.0720 0.0780 0.0850 0.0920
18.014000 0.0970 0.1010 0.1110 0.1190 0.1270
18.101648 0.1420 0.1540 0.1700 0.1820 0.2000
18.189000 0.2230 0.2430 0.2590 0.2750 0.2910
18.276648 0.3070 0.3230 0.3370 0.3530 0.3690
18.365000 0.3830 0.3970 0.4100 0.4240 0.4350
18.452648 0.4470 0.4580 0.4670 0.4740 0.4810
18.540000 0.4880 0.4970 0.4990 0.5000 0.5020
18.627648 0.5060 0.5090 0.5130 0.5130 0.5110
18.715000 0.5090 0.5060 0.5040 0.4970 0.4880
18.802648 0.4840 0.4790 0.4720 0.4630 0.4560
18.890000 0.4510 0.4490 0.4490 0.4510 0.4560
18.977648 0.4600 0.4700 0.4770 0.4860 0.4950
19.065000 0.5000 0.5060 0.5180 0.5360 0.5570
19.152648 0.5790 0.5960 0.6070 0.6190 0.6320
19.240000 0.6390 0.6500 0.6570 0.6670 0.6740
19.327648 0.6830 0.6900 0.6980 0.7030 0.7140
19.416000 0.7190 0.7240 0.7280 0.7300 0.7350
19.503648 0.7350 0.7400 0.7460 0.7510 0.7510
19.591000 0.7560 0.7600 0.7610 0.7630 0.7650
19.678648 0.7670 0.7690 0.7700 0.7720 0.7720
19.766000 0.7740 0.7740 0.7770 0.7770 0.7790
19.853648 0.7810 0.7830 0.7830 0.7830 0.7850
19.941000 0.7850 0.7850 0.7850 0.7860 0.7880
20.028648 0.7880 0.7900 0.7900 0.7900 0.7900
20.116000 0.7920 0.7920 0.7930 0.7930 0.7920
20.203648 0.7920 0.7900 0.7880 0.7880 0.7860
20.291000 0.7860 0.7860 0.7860 0.7860 0.7860
20.378648 0.7850 0.7830 0.7830 0.7830 0.7830
20.467000 0.7810 0.7810 0.7810 0.7810 0.7810
20.554648 0.7810 0.7810 0.7810 0.7810 0.7790
20.642000 0.7790 0.7790 0.7790 0.7770 0.7770
20.729648 0.7760 0.7740 0.7720 0.7700 0.7700
20.817000 0.7700 0.7700 0.7690 0.7690 0.7690
20.904648 0.7690 0.7690 0.7690 0.7670 0.7670
20.992000 0.7650 0.7650 0.7630 0.7610 0.7610
21.079648 0.7610 0.7600 0.7600 0.7600 0.7600
21.167000 0.7600 0.7580 0.7580 0.7560 0.7560
21.254648 0.7540 0.7530 0.7510 0.7510 0.7490
21.342000 0.7490 0.7470 0.7470 0.7460 0.7440
21.429648 0.7420 0.7400 0.7380 0.7370 0.7350
21.518000 0.7350 0.7330 0.7310 0.7300 0.7280
21.605648 0.7260 0.7220 0.7190 0.7170 0.7120
21.693000 0.7120 0.7100 0.7080 0.7030 0.6990
21.780648 0.6940 0.6920 0.6900 0.6870 0.6820
21.868000 0.6800 0.6760 0.6710 0.6690 0.6640
21.955648 0.6600 0.6530 0.6500 0.6440 0.6370
22.043000 0.6340 0.6320 0.6280 0.6230 0.6180
22.130648 0.6140 0.6110 0.6050 0.6000 0.5980
22.218000 0.5910 0.5820 0.5770 0.5680 0.5630
22.305648 0.5550 0.5520 0.5480 0.5410 0.5360
22.393000 0.5290 0.5220 0.5130 0.5060 0.4950
22.480648 0.4840 0.4760 0.4670 0.4560 0.4470
22.568000 0.4400 0.4310 0.4220 0.4130 0.4040
22.655648 0.3920 0.3740 0.3580 0.3480 0.3390
22.744000 0.3320 0.3260 0.3140 0.3050 0.3000
22.831648 0.2910 0.2780 0.2710 0.2640 0.2520
22.919000 0.2460 0.2360 0.2300 0.2270 0.2220
23.006648 0.2180 0.2140 0.2110 0.2070 0.2070
23.094000 0.2060 0.2040 0.2040 0.2020 0.2020
23.181648 0.2040 0.2040 0.2060 0.2070 0.2090
23.269000 0.2090 0.2130 0.2130 0.2180 0.2180
23.356648 0.2200 0.2220 0.2230 0.2230 0.2270
23.444000 0.2320 0.2340 0.2380 0.2430 0.2460
23.531648 0.2500 0.2570 0.2590 0.2680 0.2730
23.619000 0.2840 0.2910 0.2960 0.3030 0.3160
23.706648 0.3260 0.3330 0.3460 0.3510 0.3640
23.795000 0.3760 0.3850 0.3960 0.4100 0.4220
23.882648 0.4360 0.4490 0.4610 0.4680 0.4740
23.970000 0.4790 0.4860 0.4990 0.5070 0.5160
24.057648 0.5270 0.5320 0.5450 0.5520 0.5680
24.145000 0.5790 0.5860 0.5960 0.6020 0.6090
24.232648 0.6140 0.6180 0.6210 0.6250 0.6280
24.320000 0.6370 0.6480 0.6500 0.6510 0.6570
24.407648 0.6580 0.6600 0.6640 0.6690 0.6710
24.495000 0.6710 0.6730 0.6760 0.6800 0.6820
24.582648 0.6820 0.6830 0.6850 0.6850 0.6850
24.670000 0.6870 0.6870 0.6890 0.6890 0.6890
24.757648 0.6890 0.6900 0.6900 0.6900 0.6920
24.846000 0.6920 0.6940 0.6940 0.6960 0.6960
24.933648 0.6960 0.6960 0.6960 0.6940 0.6920
25.021000 0.6890 0.6830 0.6800 0.6730 0.6640
25.108648 0.6500 0.6410 0.6350 0.6280 0.6190
25.196000 0.6140 0.6050 0.6020 0.5950 0.5750
25.283648 0.5570 0.5410 0.5290 0.5180 0.5070
25.371000 0.4840 0.4700 0.4580 0.4520 0.4490
25.458648 0.4440 0.4400 0.4350 0.4310 0.4290
25.546000 0.4280 0.4260 0.4260 0.4280 0.4290
25.633648 0.4310 0.4350 0.4360 0.4400 0.4470
25.721000 0.4670 0.4760 0.4860 0.4970 0.5000
25.808648 0.5020 0.5110 0.5180 0.5270 0.5360
25.896000 0.5390 0.5470 0.5500 0.5540 0.5610
25.983648 0.5660 0.5750 0.5820 0.5870 0.5960
26.072000 0.5980 0.6000 0.6020 0.6020 0.6050
26.159648 0.6070 0.6090 0.6110 0.6120 0.6120
26.247000 0.6120 0.6110 0.6090 0.6070 0.6050
26.334648 0.6050 0.6020 0.6020 0.6000 0.5980
26.422000 0.5910 0.5890 0.5840 0.5790 0.5700
26.509648 0.5570 0.5480 0.5450 0.5380 0.5310
26.597000 0.5270 0.5180 0.5060 0.5020 0.4880
26.684648 0.4770 0.4680 0.4580 0.4490 0.4400
26.772000 0.4310 0.4240 0.4170 0.4060 0.4010
26.859648 0.3970 0.3870 0.3780 0.3690 0.3670
26.947000 0.3620 0.3530 0.3480 0.3460 0.3410
27.034648 0.3410 0.3390 0.3390 0.3390 0.3390
27.123000 0.3410 0.3410 0.3420 0.3480 0.3480
27.210648 0.3510 0.3530 0.3580 0.3600 0.3620
27.298000 0.3640 0.3650 0.3670 0.3670 0.3690
27.385648 0.3730 0.3800 0.3870 0.3880 0.3900
27.473000 0.3900 0.3940 0.3940 0.3960 0.3960
27.560648 0.3970 0.4010 0.4030 0.4040 0.4080
27.648000 0.4120 0.4170 0.4200 0.4220 0.4260
27.735648 0.4290 0.4310 0.4360 0.4420 0.4510
27.823000 0.4580 0.4650 0.4720 0.4790 0.4860
27.910648 0.4930 0.4970 0.5000 0.5090 0.5180
27.998000 0.5250 0.5320 0.5450 0.5590 0.5660
28.085648 0.5730 0.5840 0.5960 0.6020 0.6160
28.174000 0.6250 0.6320 0.6370 0.6460 0.6500
28.261648 0.6550 0.6640 0.6670 0.6740 0.6820
28.349000 0.6870 0.6990 0.7050 0.7150 0.7220
28.436648 0.7280 0.7310 0.7370 0.7420 0.7470
28.524000 0.7530 0.7600 0.7630 0.7650 0.7690
28.611648 0.7720 0.7790 0.7830 0.7860 0.7970
28.699000 0.7990 0.8010 0.8010 0.8020 0.8020
28.786648 0.8080 0.8110 0.8150 0.8170 0.8180
28.874000 0.8240 0.8270 0.8290 0.8330 0.8340
28.961648 0.8360 0.8360 0.8380 0.8380 0.8400
29.049000 0.8400 0.8410 0.8410 0.8450 0.8490
29.136648 0.8500 0.8520 0.8560 0.8570 0.8590
29.225000 0.8630 0.8650 0.8650 0.8660 0.8660
29.312648 0.8680 0.8680 0.8700 0.8700 0.8730
29.400000 0.8730 0.8750 0.8750 0.8770 0.8770
29.487648 0.8770 0.8790 0.8790 0.8800 0.8800
29.575000 0.8800 0.8800 0.8820 0.8820 0.8840
29.662648 0.8840 0.8840 0.8840 0.8840 0.8860
29.750000 0.8860 0.8880 0.8880 0.8890 0.8890
29.837648 0.8890 0.8890 0.8890 0.8890 0.8890
29.925000 0.8890 0.8910 0.8910 0.8910 0.8910
30.012648 0.8910 0.8910 0.8910 0.8910 0.8910
30.100000 0.8910 0.8910 0.8910 0.8910 0.8910
30.187648 0.8910 0.8910 0.8910 0.8910 0.8910
30.275000 0.8930 0.8930 0.8930 0.8930 0.8930
30.362648 0.8930 0.8930 0.8930 0.8930 0.8930
30.451000 0.8930 0.8930 0.8930 0.8930 0.8930
30.538648 0.8930 0.8930 0.8950 0.8950 0.8950
30.626000 0.8950 0.8950 0.8950 0.8930 0.8910
30.713648 0.8890 0.8890 0.8890 0.8890 0.8890
30.801000 0.8890 0.8880 0.8880 0.8880 0.8880
30.888648 0.8860 0.8860 0.8860 0.8840 0.8840
30.976000 0.8840 0.8860 0.8860 0.8860 0.8880
31.063648 0.8880 0.8890 0.8890 0.8890 0.8910
31.151000 0.8910 0.8910 0.8910 0.8910 0.8910
31.238648 0.8910 0.8910 0.8910 0.8910 0.8910
31.326000 0.8910 0.8910 0.8910 0.8910 0.8910
31.413648 0.8890 0.8880 0.8880 0.8860 0.8860
31.502000 0.8860 0.8840 0.8820 0.8820 0.8800
31.589648 0.8800 0.8800 0.8800 0.8800 0.8800
31.677000 0.8800 0.8800 0.8800 0.8800 0.8800
31.764648 0.8800 0.8800 0.8790 0.8790 0.8790
31.852000 0.8790 0.8770 0.8770 0.8770 0.8770
31.939648 0.8770 0.8770 0.8770 0.8770 0.8770
32.027000 0.8770 0.8750 0.8750 0.8750 0.8730
32.114648 0.8730 0.8730 0.8720 0.8700 0.8700
32.202000 0.8680 0.8680 0.8660 0.8660 0.8660
32.289648 0.8660 0.8660 0.8660 0.8650 0.8650
32.377000 0.8650 0.8650 0.8650 0.8650 0.8630
32.464648 0.8630 0.8630 0.8630 0.8610 0.8610
32.553000 0.8610 0.8610 0.8590 0.8590 0.8570
32.640648 0.8570 0.8560 0.8560 0.8560 0.8560
32.728000 0.8540 0.8540 0.8540 0.8540 0.8540
32.815648 0.8520 0.8520 0.8520 0.8500 0.8500
32.903000 0.8490 0.8490 0.8470 0.8470 0.8450
32.990648 0.8400 0.8400 0.8380 0.8360 0.8340
33.078000 0.8340 0.8330 0.8330 0.8310 0.8310
33.165648 0.8290 0.8290 0.8290 0.8270 0.8270
33.253000 0.8270 0.8250 0.8250 0.8250 0.8250
33.340648 0.8240 0.8240 0.8240 0.8220 0.8220
33.428000 0.8220 0.8220 0.8200 0.8200 0.8200
33.515648 0.8180 0.8180 0.8180 0.8170 0.8170
33.604000 0.8150 0.8150 0.8130 0.8130 0.8110
33.691648 0.8110 0.8090 0.8090 0.8090 0.8080
33.779000 0.8060 0.8060 0.8040 0.8040 0.8020
33.866648 0.8020 0.8010 0.8010 0.7990 0.7970
33.954000 0.7950 0.7930 0.7930 0.7920 0.7900
34.041648 0.7880 0.7860 0.7860 0.7850 0.7830
34.129000 0.7810 0.7810 0.7790 0.7770 0.7770
34.216648 0.7760 0.7740 0.7740 0.7720 0.7700
34.304000 0.7700 0.7690 0.7670 0.7670 0.7650
34.391648 0.7630 0.7610 0.7600 0.7580 0.7560
34.479000 0.7540 0.7530 0.7510 0.7490 0.7490
34.566648 0.7470 0.7460 0.7440 0.7440 0.7420
34.654000 0.7400 0.7400 0.7380 0.7370 0.7370
34.741648 0.7350 0.7330 0.7330 0.7300 0.7280
34.830000 0.7260 0.7240 0.7210 0.7190 0.7170
34.917648 0.7170 0.7150 0.7140 0.7140 0.7120
35.005000 0.7100 0.7080 0.7060 0.7050 0.7030
35.092648 0.7010 0.6990 0.6980 0.6960 0.6940
35.180000 0.6920 0.6900 0.6890 0.6870 0.6850
35.267648 0.6830 0.6820 0.6800 0.6780 0.6760
35.355000 0.6740 0.6730 0.6730 0.6670 0.6600
35.442648 0.6580 0.6570 0.6530 0.6500 0.6440
35.530000 0.6410 0.6390 0.6390 0.6370 0.6370
35.617648 0.6350 0.6340 0.6320 0.6300 0.6280
35.705000 0.6280 0.6250 0.6250 0.6250 0.6230
35.792648 0.6210 0.6210 0.6190 0.6180 0.6160
35.881000 0.6140 0.6140 0.6140 0.6120 0.6110
35.968648 0.6110 0.6110 0.6090 0.6090 0.6070
36.056000 0.6050 0.6050 0.6050 0.6030 0.6030
36.143648 0.6020 0.6020 0.6020 0.6000 0.5980
36.231000 0.5980 0.5950 0.5950 0.5930 0.5890
36.318648 0.5870 0.5860 0.5800 0.5790 0.5730
36.406000 0.5660 0.5640 0.5630 0.5590 0.5590
36.493648 0.5540 0.5520 0.5500 0.5470 0.5450
36.581000 0.5410 0.5360 0.5290 0.5200 0.5150
36.668648 0.5130 0.5110 0.5110 0.5090 0.5090
36.756000 0.5070 0.5070 0.5070 0.5070 0.5060
36.843648 0.5060 0.5040 0.5040 0.5040 0.5020
36.932000 0.5020 0.5020 0.5000 0.5000
##END=
