##TITLE=2-METHYLENECYCLOPROPANEMETHANOL
##JCAMP-DX=4.24
##DATA TYPE=INFRARED SPECTRUM
##CLASS=COBLENTZ
##ORIGIN=ABBOTT LABORATORIES - WASHBURN
##OWNER=COBLENTZ SOCIETY
Collection (C) 2018 copyright by the U.S. Secretary of Commerce
on behalf of the United States of America. All rights reserved.
##DATE=Not specified, most likely prior to 1970
##NAMES=(2-methylenecyclopropyl)methanol
##CAS REGISTRY NO=29279-66-1
##MOLFORM=C5 H8 O
##SOURCE REFERENCE=COBLENTZ NO. 3444
##$NIST SOURCE=COBLENTZ
##$NIST IMAGE=cob3444
##SPECTROMETER/DATA SYSTEM=PERKIN-ELMER
##STATE=LIQUID
##PATH LENGTH=CAPILLARY
##SAMPLING PROCEDURE=TRANSMISSION
##RESOLUTION=4
##DATA PROCESSING=DIGITIZED BY NIST FROM HARD COPY (FROM TWO SEGMENTS)
##XUNITS=MICROMETERS
##YUNITS=TRANSMITTANCE
##XFACTOR=1.000000
##YFACTOR=1
##DELTAX=0.006614
##FIRSTX=2.037
##LASTX=15.4436
##FIRSTY=0.894
##MAXX=15.4436
##MINX=2.037
##MAXY=0.918
##MINY=0.038
##NPOINTS=2028
##XYDATA=(X++(Y..Y))
2.037000 0.8940 0.8920 0.8940 0.8960 0.8940
2.070070 0.8920 0.8871 0.8870 0.8890 0.8890
2.103140 0.8920 0.8920 0.8910 0.8909 0.8870
2.136210 0.8870 0.8870 0.8870 0.8890 0.8910
2.169280 0.8920 0.8921 0.8941 0.8961 0.8991
2.202350 0.9030 0.9041 0.9061 0.9080 0.9080
2.235420 0.9091 0.9111 0.9131 0.9139 0.9127
2.268490 0.9077 0.9026 0.8958 0.8919 0.8890
2.301560 0.8890 0.8890 0.8909 0.8919 0.8966
2.334630 0.9007 0.9028 0.9030 0.9057 0.9087
2.367700 0.9109 0.9110 0.9110 0.9129 0.9130
2.400770 0.9130 0.9130 0.9092 0.9090 0.9109
2.433840 0.9110 0.9110 0.9110 0.9110 0.9110
2.466910 0.9091 0.9042 0.8963 0.8912 0.8910
2.499980 0.9010 0.9060 0.9090 0.9090 0.9110
2.533050 0.9110 0.9130 0.9110 0.9110 0.9130
2.566120 0.9130 0.9130 0.9130 0.9110 0.9090
2.599190 0.9080 0.9040 0.9060 0.9080 0.9110
2.632260 0.9140 0.9140 0.9141 0.9180 0.9179
2.665330 0.9140 0.9140 0.9140 0.9129 0.9091
2.698400 0.9130 0.9129 0.9108 0.9078 0.9037
2.731470 0.8987 0.8918 0.8867 0.8807 0.8736
2.764540 0.8646 0.8575 0.8477 0.8378 0.8186
2.797610 0.7986 0.7759 0.7539 0.7310 0.7071
2.830680 0.6927 0.6787 0.6543 0.6284 0.5997
2.863750 0.5698 0.5398 0.5071 0.4732 0.4384
2.896820 0.4001 0.3815 0.3616 0.3224 0.2853
2.929890 0.2551 0.2300 0.2079 0.1888 0.1728
2.962960 0.1581 0.1451 0.1302 0.1231 0.1171
2.996030 0.1052 0.1001 0.0980 0.0951 0.0931
3.029100 0.0899 0.0850 0.0830 0.0830 0.0830
3.062170 0.0880 0.0930 0.0950 0.0980 0.1099
3.095240 0.1204 0.1325 0.1486 0.1685 0.1853
3.128310 0.1953 0.2073 0.2225 0.2443 0.2623
3.161380 0.2810 0.2980 0.3170 0.3349 0.3530
3.194450 0.3731 0.3984 0.4523 0.4835 0.4965
3.227520 0.5100 0.5267 0.5446 0.5635 0.5724
3.260590 0.5730 0.5712 0.5518 0.5464 0.5460
3.293660 0.5545 0.5673 0.5841 0.5991 0.6141
3.326730 0.6216 0.6229 0.6230 0.6156 0.5453
3.359800 0.4761 0.4295 0.4087 0.3878 0.3764
3.392870 0.3760 0.3837 0.4355 0.4380 0.4342
3.425940 0.4182 0.4131 0.4031 0.3991 0.3941
3.459010 0.3891 0.3890 0.3919 0.4105 0.4032
3.492080 0.3990 0.3958 0.3710 0.3690 0.3720
3.525150 0.3790 0.3920 0.4478 0.5007 0.5308
3.558220 0.5635 0.5789 0.6080 0.6435 0.6633
3.591290 0.6751 0.6808 0.7222 0.7342 0.7451
3.624360 0.7555 0.7653 0.7702 0.7752 0.7790
3.657430 0.7801 0.7821 0.7851 0.7871 0.7890
3.690500 0.7892 0.7920 0.7921 0.7942 0.7970
3.723570 0.7975 0.8043 0.8094 0.8165 0.8242
3.756640 0.8269 0.8308 0.8338 0.8359 0.8369
3.789710 0.8370 0.8370 0.8370 0.8370 0.8389
3.822780 0.8409 0.8420 0.8439 0.8440 0.8459
3.855850 0.8470 0.8489 0.8509 0.8519 0.8539
3.888920 0.8570 0.8590 0.8620 0.8640 0.8640
3.921990 0.8640 0.8660 0.8660 0.8660 0.8670
3.955060 0.8660 0.8660 0.8660 0.8660 0.8640
3.988130 0.8660 0.8670 0.8670 0.8670 0.8670
4.021200 0.8670 0.8670 0.8670 0.8660 0.8640
4.054270 0.8640 0.8620 0.8620 0.8610 0.8590
4.087340 0.8589 0.8570 0.8570 0.8559 0.8540
4.120410 0.8540 0.8540 0.8540 0.8541 0.8560
4.153480 0.8561 0.8570 0.8570 0.8571 0.8591
4.186550 0.8611 0.8621 0.8640 0.8639 0.8620
4.219620 0.8620 0.8611 0.8591 0.8609 0.8619
4.252690 0.8639 0.8640 0.8668 0.8707 0.8710
4.285760 0.8710 0.8720 0.8720 0.8710 0.8710
4.318830 0.8710 0.8710 0.8710 0.8672 0.8623
4.351900 0.8610 0.8590 0.8590 0.8570 0.8560
4.384970 0.8541 0.8540 0.8511 0.8491 0.8471
4.418040 0.8440 0.8420 0.8420 0.8410 0.8390
4.451110 0.8320 0.8290 0.8260 0.8240 0.8240
4.484180 0.8271 0.8290 0.8310 0.8310 0.8320
4.517250 0.8320 0.8340 0.8360 0.8390 0.8370
4.550320 0.8370 0.8359 0.8340 0.8339 0.8320
4.583390 0.8320 0.8309 0.8289 0.8270 0.8270
4.616460 0.8270 0.8270 0.8269 0.8259 0.8239
4.649530 0.8220 0.8219 0.8210 0.8210 0.8210
4.682600 0.8210 0.8210 0.8219 0.8220 0.8211
4.715670 0.8210 0.8210 0.8210 0.8219 0.8220
4.748740 0.8210 0.8191 0.8190 0.8190 0.8171
4.781810 0.8160 0.8141 0.8140 0.8121 0.8120
4.814880 0.8110 0.8090 0.8070 0.8070 0.8070
4.847950 0.8060 0.8060 0.8060 0.8060 0.8060
4.881020 0.8040 0.8020 0.8010 0.8010 0.8010
4.914090 0.8010 0.8010 0.7990 0.8010 0.8010
4.947160 0.8020 0.8020 0.8040 0.8040 0.8060
4.980230 0.8060 0.8070 0.8070 0.8060 0.8021
5.013300 0.8020 0.8020 0.8056 0.8069 0.8113
5.046370 0.8137 0.8156 0.8160 0.8160 0.8160
5.079440 0.8160 0.8180 0.8177 0.8170 0.8164
5.112510 0.8160 0.8160 0.8165 0.8165 0.8160
5.145580 0.8160 0.8160 0.8160 0.8160 0.8163
5.178650 0.8170 0.8167 0.8155 0.8140 0.8140
5.211720 0.8140 0.8140 0.8140 0.8140 0.8141
5.244790 0.8160 0.8160 0.8160 0.8160 0.8160
5.277860 0.8160 0.8170 0.8170 0.8170 0.8170
5.310930 0.8170 0.8170 0.8170 0.8170 0.8162
5.344000 0.8145 0.8154 0.8160 0.8160 0.8160
5.377070 0.8160 0.8160 0.8160 0.8149 0.8140
5.410140 0.8131 0.8120 0.8116 0.8102 0.8072
5.443210 0.8040 0.8034 0.8020 0.8017 0.8010
5.476280 0.8006 0.7987 0.7966 0.7940 0.7940
5.509350 0.7939 0.7919 0.7900 0.7890 0.7823
5.542420 0.7793 0.7790 0.7730 0.7695 0.7649
5.575490 0.7624 0.7597 0.7561 0.7515 0.7480
5.608560 0.7451 0.7415 0.7394 0.7390 0.7369
5.641630 0.7350 0.7345 0.7331 0.7311 0.7288
5.674700 0.7251 0.7169 0.7032 0.6915 0.6783
5.707770 0.6638 0.6589 0.6546 0.6530 0.6533
5.740840 0.6575 0.6789 0.6994 0.7291 0.7416
5.773910 0.7526 0.7577 0.7654 0.7721 0.7750
5.806980 0.7789 0.7799 0.7818 0.7802 0.7800
5.840050 0.7800 0.7800 0.7800 0.7815 0.7820
5.873120 0.7820 0.7833 0.7846 0.7832 0.7761
5.906190 0.7703 0.7669 0.7645 0.7640 0.7631
5.939260 0.7607 0.7554 0.7496 0.7476 0.7447
5.972330 0.7440 0.7427 0.7381 0.7339 0.7304
6.005400 0.7317 0.7300 0.7300 0.7299 0.7290
6.038470 0.7290 0.7320 0.7349 0.7350 0.7350
6.071540 0.7368 0.7353 0.7284 0.7270 0.7285
6.104610 0.7312 0.7334 0.7340 0.7340 0.7340
6.137680 0.7346 0.7373 0.7407 0.7420 0.7430
6.170750 0.7454 0.7492 0.7528 0.7540 0.7540
6.203820 0.7540 0.7543 0.7557 0.7578 0.7590
6.236890 0.7590 0.7593 0.7600 0.7600 0.7600
6.269960 0.7604 0.7624 0.7642 0.7650 0.7647
6.303030 0.7620 0.7620 0.7620 0.7620 0.7620
6.336100 0.7601 0.7600 0.7618 0.7620 0.7604
6.369170 0.7600 0.7600 0.7593 0.7561 0.7516
6.402240 0.7500 0.7557 0.7590 0.7578 0.7570
6.435310 0.7544 0.7510 0.7486 0.7461 0.7450
6.468380 0.7458 0.7477 0.7490 0.7499 0.7525
6.501450 0.7530 0.7489 0.7454 0.7465 0.7437
6.534520 0.7420 0.7418 0.7398 0.7371 0.7390
6.567590 0.7400 0.7419 0.7420 0.7438 0.7440
6.600660 0.7423 0.7363 0.7326 0.7297 0.7261
6.633730 0.7250 0.7243 0.7240 0.7209 0.7178
6.666800 0.7159 0.7145 0.7119 0.7076 0.7034
6.699870 0.6991 0.6921 0.6839 0.6790 0.6757
6.732940 0.6695 0.6617 0.6531 0.6416 0.6287
6.766010 0.6193 0.6103 0.5993 0.5865 0.5785
6.799080 0.5660 0.5531 0.5333 0.5194 0.5125
6.832150 0.5050 0.5030 0.5001 0.4962 0.4914
6.865220 0.4910 0.4927 0.4930 0.4930 0.4993
6.898290 0.4935 0.4838 0.4740 0.4690 0.4635
6.931360 0.4530 0.4421 0.4352 0.4303 0.4259
6.964430 0.4235 0.4221 0.4210 0.4210 0.4203
6.997500 0.4180 0.4138 0.4072 0.4025 0.4005
7.030570 0.3990 0.3987 0.3969 0.3958 0.3938
7.063640 0.3918 0.3888 0.3840 0.3820 0.3810
7.096710 0.3772 0.3698 0.3603 0.3565 0.3502
7.129780 0.3466 0.3445 0.3425 0.3420 0.3448
7.162850 0.3527 0.3641 0.3737 0.3818 0.3889
7.195920 0.3944 0.4044 0.4115 0.4136 0.4151
7.228990 0.4171 0.4185 0.4190 0.4186 0.4172
7.262060 0.4160 0.4149 0.4123 0.4104 0.4081
7.295130 0.4047 0.4010 0.4024 0.4085 0.4120
7.328200 0.4190 0.4272 0.4387 0.4487 0.4643
7.361270 0.4779 0.4925 0.5004 0.5046 0.5094
7.394340 0.5125 0.5188 0.5248 0.5291 0.5300
7.427410 0.5300 0.5300 0.5307 0.5310 0.5310
7.460480 0.5321 0.5330 0.5340 0.5350 0.5350
7.493550 0.5354 0.5368 0.5392 0.5417 0.5437
7.526620 0.5459 0.5485 0.5502 0.5521 0.5574
7.559690 0.5633 0.5657 0.5712 0.5804 0.5853
7.592760 0.5900 0.5910 0.5949 0.5997 0.5982
7.625830 0.5953 0.5915 0.5885 0.5861 0.5832
7.658900 0.5803 0.5783 0.5755 0.5750 0.5750
7.691970 0.5735 0.5730 0.5744 0.5757 0.5773
7.725040 0.5799 0.5852 0.5891 0.5905 0.5931
7.758110 0.5975 0.6014 0.6048 0.6074 0.6095
7.791180 0.6138 0.6186 0.6235 0.6278 0.6305
7.824250 0.6322 0.6334 0.6350 0.6353 0.6370
7.857320 0.6370 0.6371 0.6380 0.6380 0.6399
7.890390 0.6419 0.6429 0.6448 0.6450 0.6450
7.923460 0.6450 0.6450 0.6435 0.6430 0.6395
7.956530 0.6346 0.6330 0.6361 0.6404 0.6426
7.989600 0.6425 0.6395 0.6351 0.6325 0.6311
8.022670 0.6292 0.6258 0.6206 0.6161 0.6100
8.055740 0.6042 0.5995 0.5894 0.5818 0.5748
8.088810 0.5677 0.5655 0.5602 0.5495 0.5399
8.121880 0.5356 0.5327 0.5297 0.5257 0.5209
8.154950 0.5180 0.5180 0.5208 0.5247 0.5259
8.188020 0.5294 0.5350 0.5400 0.5488 0.5585
8.221090 0.5646 0.5723 0.5770 0.5812 0.5874
8.254160 0.5976 0.6080 0.6136 0.6175 0.6233
8.287230 0.6284 0.6309 0.6340 0.6392 0.6444
8.320300 0.6470 0.6473 0.6490 0.6534 0.6590
8.353370 0.6639 0.6688 0.6733 0.6750 0.6751
8.386440 0.6772 0.6820 0.6849 0.6898 0.6928
8.419510 0.6930 0.6930 0.6947 0.6967 0.6970
8.452580 0.6970 0.6970 0.6970 0.6977 0.6993
8.485650 0.7000 0.7000 0.7000 0.6989 0.6980
8.518720 0.6975 0.6961 0.6937 0.6920 0.6905
8.551790 0.6869 0.6843 0.6827 0.6820 0.6815
8.584860 0.6795 0.6778 0.6785 0.6814 0.6792
8.617930 0.6765 0.6746 0.6725 0.6700 0.6696
8.651000 0.6665 0.6619 0.6599 0.6580 0.6551
8.684070 0.6531 0.6484 0.6381 0.6291 0.6212
8.717140 0.6134 0.6064 0.5958 0.5835 0.5694
8.750210 0.5534 0.5349 0.5135 0.4893 0.4640
8.783280 0.4425 0.4235 0.4086 0.3966 0.3769
8.816350 0.3512 0.3347 0.3274 0.3197 0.3167
8.849420 0.3160 0.3163 0.3190 0.3284 0.3409
8.882490 0.3527 0.3654 0.3782 0.3940 0.4282
8.915560 0.4340 0.4389 0.4428 0.4476 0.4533
8.948630 0.4660 0.4772 0.4927 0.4991 0.5038
8.981700 0.5123 0.5192 0.5257 0.5312 0.5373
9.014770 0.5429 0.5450 0.5455 0.5455 0.5440
9.047840 0.5407 0.5367 0.5322 0.5245 0.5156
9.080910 0.5059 0.4961 0.4816 0.4596 0.4346
9.113980 0.4091 0.3938 0.3770 0.3595 0.3409
9.147050 0.3183 0.3007 0.2941 0.2962 0.3073
9.180120 0.3232 0.3444 0.3570 0.3668 0.3952
9.213190 0.4307 0.4491 0.4596 0.4752 0.4861
9.246260 0.4943 0.5036 0.5162 0.5235 0.5270
9.279330 0.5325 0.5368 0.5392 0.5434 0.5481
9.312400 0.5490 0.5480 0.5466 0.5428 0.5380
9.345470 0.5317 0.5243 0.5169 0.5066 0.5017
9.378540 0.4952 0.4850 0.4795 0.4719 0.4654
9.411610 0.4607 0.4580 0.4579 0.4560 0.4540
9.444680 0.4540 0.4540 0.4513 0.4510 0.4510
9.477750 0.4485 0.4464 0.4361 0.4256 0.4088
9.510820 0.3968 0.3874 0.3726 0.3605 0.3436
9.543890 0.3263 0.3101 0.2913 0.2754 0.2595
9.576960 0.2419 0.2260 0.2104 0.1972 0.1806
9.610030 0.1585 0.1404 0.1289 0.1236 0.1139
9.643100 0.1050 0.0990 0.0953 0.0920 0.0875
9.676170 0.0844 0.0804 0.0760 0.0759 0.0750
9.709240 0.0750 0.0750 0.0750 0.0759 0.0760
9.742310 0.0760 0.0752 0.0734 0.0730 0.0715
9.775380 0.0703 0.0700 0.0686 0.0680 0.0667
9.808450 0.0630 0.0564 0.0487 0.0440 0.0415
9.841520 0.0391 0.0380 0.0388 0.0404 0.0417
9.874590 0.0430 0.0436 0.0463 0.0527 0.0632
9.907660 0.0738 0.0875 0.0973 0.1138 0.1284
9.940730 0.1335 0.1424 0.1549 0.1647 0.1885
9.973800 0.2074 0.2224 0.2413 0.2524 0.2743
10.006870 0.2932 0.3076 0.3161 0.3288 0.3457
10.039940 0.3593 0.3750 0.3915 0.4124 0.4259
10.073010 0.4356 0.4434 0.4502 0.4558 0.4607
10.106080 0.4645 0.4670 0.4671 0.4651 0.4640
10.139150 0.4636 0.4623 0.4603 0.4575 0.4527
10.172220 0.4488 0.4476 0.4460 0.4457 0.4440
10.205290 0.4442 0.4462 0.4481 0.4490 0.4490
10.238360 0.4509 0.4510 0.4528 0.4530 0.4513
10.271430 0.4485 0.4464 0.4476 0.4502 0.4568
10.304500 0.4659 0.4770 0.4893 0.4995 0.5101
10.337570 0.5206 0.5293 0.5381 0.5478 0.5566
10.370640 0.5618 0.5650 0.5706 0.5753 0.5766
10.403710 0.5786 0.5800 0.5800 0.5796 0.5780
10.436780 0.5777 0.5759 0.5750 0.5750 0.5750
10.469850 0.5750 0.5760 0.5799 0.5809 0.5915
10.502920 0.6022 0.6119 0.6130 0.6177 0.6226
10.535990 0.6292 0.6317 0.6328 0.6403 0.6443
10.569060 0.6465 0.6477 0.6494 0.6513 0.6526
10.602130 0.6542 0.6562 0.6570 0.6543 0.6495
10.635200 0.6451 0.6426 0.6382 0.6310 0.6262
10.668270 0.6203 0.6125 0.6044 0.5962 0.5872
10.701340 0.5716 0.5559 0.5441 0.5316 0.5198
10.734410 0.5072 0.4955 0.4838 0.4731 0.4682
10.767480 0.4634 0.4612 0.4627 0.4698 0.4792
10.800550 0.4874 0.4974 0.5074 0.5157 0.5249
10.833620 0.5332 0.5416 0.5498 0.5576 0.5637
10.866690 0.5696 0.5745 0.5779 0.5804 0.5810
10.899760 0.5806 0.5786 0.5750 0.5724 0.5694
10.932830 0.5640 0.5603 0.5564 0.5492 0.5436
10.965900 0.5338 0.5235 0.5132 0.5055 0.5015
10.998970 0.4907 0.4720 0.4524 0.4435 0.4308
11.032040 0.4181 0.4038 0.3965 0.3879 0.3713
11.065110 0.3580 0.3355 0.3231 0.3141 0.3024
11.098180 0.2926 0.2832 0.2631 0.2453 0.2352
11.131250 0.2263 0.2138 0.2023 0.1941 0.1830
11.164320 0.1693 0.1583 0.1500 0.1426 0.1361
11.197390 0.1299 0.1228 0.1141 0.1043 0.1016
11.230460 0.0997 0.0973 0.0928 0.0909 0.0900
11.263530 0.0910 0.0910 0.0929 0.0930 0.0958
11.296600 0.0978 0.1023 0.1063 0.1158 0.1296
11.329670 0.1457 0.1558 0.1685 0.1797 0.1966
11.362740 0.2139 0.2348 0.2506 0.2650 0.2830
11.395810 0.3010 0.3137 0.3284 0.3520 0.3688
11.428880 0.3812 0.3986 0.4271 0.4514 0.4692
11.461950 0.4850 0.5003 0.5089 0.5202 0.5277
11.495020 0.5341 0.5395 0.5485 0.5619 0.5685
11.528090 0.5731 0.5751 0.5780 0.5800 0.5858
11.561160 0.5879 0.5880 0.5898 0.5909 0.5910
11.594230 0.5910 0.5902 0.5870 0.5838 0.5809
11.627300 0.5787 0.5761 0.5738 0.5718 0.5704
11.660370 0.5689 0.5670 0.5655 0.5641 0.5630
11.693440 0.5638 0.5661 0.5690 0.5723 0.5753
11.726510 0.5770 0.5811 0.5862 0.5919 0.5969
11.759580 0.6024 0.6052 0.6074 0.6121 0.6150
11.792650 0.6199 0.6248 0.6278 0.6325 0.6391
11.825720 0.6425 0.6446 0.6474 0.6534 0.6572
11.858790 0.6608 0.6620 0.6640 0.6681 0.6712
11.891860 0.6726 0.6741 0.6750 0.6760 0.6770
11.924930 0.6770 0.6770 0.6770 0.6785 0.6814
11.958000 0.6839 0.6850 0.6850 0.6850 0.6850
11.991070 0.6850 0.6856 0.6870 0.6870 0.6872
12.024140 0.6880 0.6880 0.6880 0.6882 0.6899
12.057210 0.6880 0.6870 0.6870 0.6880 0.6880
12.090280 0.6871 0.6870 0.6878 0.6896 0.6884
12.123350 0.6880 0.6873 0.6856 0.6850 0.6850
12.156420 0.6850 0.6838 0.6830 0.6830 0.6830
12.189490 0.6825 0.6820 0.6803 0.6768 0.6742
12.222560 0.6726 0.6720 0.6720 0.6720 0.6720
12.255630 0.6711 0.6678 0.6664 0.6630 0.6629
12.288700 0.6618 0.6600 0.6600 0.6600 0.6600
12.321770 0.6600 0.6600 0.6582 0.6580 0.6572
12.354840 0.6570 0.6554 0.6535 0.6523 0.6506
12.387910 0.6486 0.6473 0.6455 0.6450 0.6415
12.420980 0.6380 0.6344 0.6311 0.6300 0.6289
12.454050 0.6275 0.6224 0.6175 0.6161 0.6141
12.487120 0.6118 0.6089 0.6063 0.6034 0.5985
12.520190 0.5944 0.5923 0.5896 0.5880 0.5875
12.553260 0.5847 0.5830 0.5832 0.5851 0.5860
12.586330 0.5860 0.5880 0.5899 0.5909 0.5945
12.619400 0.5993 0.6058 0.6094 0.6116 0.6120
12.652470 0.6142 0.6171 0.6193 0.6219 0.6242
12.685540 0.6250 0.6267 0.6280 0.6305 0.6354
12.718610 0.6389 0.6400 0.6400 0.6400 0.6400
12.751680 0.6400 0.6400 0.6392 0.6361 0.6330
12.784750 0.6325 0.6300 0.6303 0.6320 0.6321
12.817820 0.6331 0.6350 0.6350 0.6350 0.6350
12.850890 0.6350 0.6332 0.6321 0.6320 0.6301
12.883960 0.6282 0.6280 0.6271 0.6270 0.6270
12.917030 0.6278 0.6272 0.6270 0.6256 0.6237
12.950100 0.6230 0.6224 0.6220 0.6209 0.6184
12.983170 0.6170 0.6151 0.6130 0.6138 0.6158
13.016240 0.6170 0.6163 0.6150 0.6150 0.6145
13.049310 0.6123 0.6094 0.6066 0.6050 0.6050
13.082380 0.6050 0.6053 0.6100 0.6100 0.6071
13.115450 0.6032 0.6021 0.6002 0.6000 0.5983
13.148520 0.5964 0.5952 0.5935 0.5930 0.5916
13.181590 0.5910 0.5903 0.5900 0.5876 0.5860
13.214660 0.5855 0.5850 0.5831 0.5810 0.5797
13.247730 0.5772 0.5756 0.5750 0.5743 0.5730
13.280800 0.5725 0.5710 0.5708 0.5700 0.5697
13.313870 0.5677 0.5660 0.5662 0.5680 0.5680
13.346940 0.5680 0.5678 0.5659 0.5650 0.5650
13.380010 0.5650 0.5650 0.5650 0.5650 0.5659
13.413080 0.5660 0.5660 0.5660 0.5660 0.5652
13.446150 0.5650 0.5650 0.5657 0.5673 0.5680
13.479220 0.5668 0.5660 0.5660 0.5660 0.5655
13.512290 0.5632 0.5606 0.5600 0.5600 0.5600
13.545360 0.5600 0.5600 0.5600 0.5595 0.5580
13.578430 0.5580 0.5580 0.5580 0.5578 0.5559
13.611500 0.5550 0.5550 0.5550 0.5550 0.5531
13.644570 0.5484 0.5462 0.5460 0.5460 0.5460
13.677640 0.5460 0.5453 0.5436 0.5430 0.5410
13.710710 0.5387 0.5368 0.5354 0.5350 0.5339
13.743780 0.5330 0.5320 0.5297 0.5280 0.5272
13.776850 0.5256 0.5250 0.5244 0.5221 0.5200
13.809920 0.5191 0.5153 0.5124 0.5110 0.5107
13.842990 0.5090 0.5058 0.5043 0.5008 0.4997
13.876060 0.4976 0.4940 0.4940 0.4930 0.4910
13.909130 0.4910 0.4891 0.4890 0.4890 0.4890
13.942200 0.4890 0.4890 0.4890 0.4890 0.4890
13.975270 0.4890 0.4890 0.4903 0.4922 0.4930
14.008340 0.4936 0.4951 0.4960 0.4960 0.4960
14.041410 0.4960 0.4968 0.4980 0.4980 0.4980
14.074480 0.4986 0.5000 0.5000 0.5000 0.5000
14.107550 0.5000 0.5000 0.5001 0.5010 0.5010
14.140620 0.5010 0.5010 0.5010 0.5010 0.5010
14.173690 0.5010 0.5010 0.5010 0.5010 0.5010
14.206760 0.5010 0.5003 0.5000 0.5000 0.4988
14.239830 0.4980 0.4980 0.4980 0.4980 0.4970
14.272900 0.4960 0.4969 0.4980 0.4971 0.4960
14.305970 0.4960 0.4960 0.4960 0.4960 0.4953
14.339040 0.4940 0.4940 0.4940 0.4940 0.4944
14.372110 0.4956 0.4940 0.4940 0.4939 0.4930
14.405180 0.4929 0.4909 0.4890 0.4890 0.4890
14.438250 0.4890 0.4890 0.4890 0.4890 0.4890
14.471320 0.4890 0.4890 0.4868 0.4860 0.4860
14.504390 0.4860 0.4848 0.4840 0.4840 0.4835
14.537460 0.4820 0.4810 0.4810 0.4810 0.4802
14.570530 0.4797 0.4810 0.4810 0.4801 0.4775
14.603600 0.4760 0.4756 0.4740 0.4740 0.4740
14.636670 0.4742 0.4760 0.4759 0.4740 0.4740
14.669740 0.4730 0.4711 0.4710 0.4692 0.4681
14.702810 0.4680 0.4680 0.4680 0.4680 0.4680
14.735880 0.4680 0.4653 0.4634 0.4630 0.4630
14.768950 0.4630 0.4630 0.4617 0.4610 0.4598
14.802020 0.4590 0.4574 0.4550 0.4535 0.4530
14.835090 0.4521 0.4510 0.4503 0.4487 0.4480
14.868160 0.4480 0.4488 0.4510 0.4510 0.4510
14.901230 0.4510 0.4506 0.4480 0.4480 0.4480
14.934300 0.4480 0.4480 0.4412 0.4391 0.4381
14.967370 0.4389 0.4450 0.4476 0.4520 0.4576
15.000440 0.4642 0.4682 0.4683 0.4680 0.4667
15.033510 0.4617 0.4584 0.4558 0.4509 0.4470
15.066580 0.4460 0.4460 0.4468 0.4480 0.4480
15.099650 0.4480 0.4474 0.4460 0.4452 0.4421
15.132720 0.4390 0.4390 0.4390 0.4390 0.4395
15.165790 0.4440 0.4440 0.4440 0.4430 0.4411
15.198860 0.4391 0.4381 0.4363 0.4377 0.4364
15.231930 0.4360 0.4345 0.4340 0.4331 0.4338
15.265000 0.4340 0.4340 0.4340 0.4340 0.4340
15.298070 0.4340 0.4334 0.4330 0.4307 0.4285
15.331140 0.4270 0.4260 0.4293 0.4330 0.4322
15.364210 0.4302 0.4290 0.4287 0.4280 0.4280
15.397280 0.4280 0.4280 0.4282 0.4290 0.4293
15.430350 0.4310 0.4310 0.4310
##END=
