##TITLE=2-AMINO-1,3,4-THIADIAZOLE
##JCAMP-DX=4.24
##DATA TYPE=INFRARED SPECTRUM
##CLASS=COBLENTZ
##ORIGIN=TENNESSEE EASTMAN COMPANY, RESEARCH LABORATORIES
##OWNER=COBLENTZ SOCIETY
Collection (C) 2018 copyright by the U.S. Secretary of Commerce
on behalf of the United States of America. All rights reserved.
##DATE=Not specified, most likely prior to 1970
##NAMES=1,3,4-thiadiazol-2-ylamine
1,3,4-thiadiazol-2-amine
##CAS REGISTRY NO=4005-51-0
##MOLFORM=C2 H3 N3 S
##SOURCE REFERENCE=COBLENTZ NO. 1447
##$NIST SOURCE=COBLENTZ
##$NIST IMAGE=cob1447
##SPECTROMETER/DATA SYSTEM=Not specified, most likely a prism, grating, or hybrid spectrometer.
##STATE=SOLID (KBr PELLET)
##SAMPLING PROCEDURE=TRANSMISSION
##RESOLUTION=4
##DATA PROCESSING=DIGITIZED BY NIST FROM HARD COPY
##XUNITS=MICROMETERS
##YUNITS=TRANSMITTANCE
##XFACTOR=1.000000
##YFACTOR=1
##DELTAX=000.006843
##FIRSTX=2.068
##LASTX=16.0138
##FIRSTY=0.852
##MAXX=16.0138
##MINX=2.068
##MAXY=0.988
##MINY=0.025
##NPOINTS=2039
##XYDATA=(X++(Y..Y))
2.068000 0.8520 0.8540 0.8560 0.8580 0.8580
2.102230 0.8580 0.8580 0.8590 0.8590 0.8590
2.137000 0.8590 0.8590 0.8590 0.8610 0.8610
2.171230 0.8610 0.8610 0.8610 0.8630 0.8630
2.205000 0.8640 0.8640 0.8660 0.8660 0.8700
2.239230 0.8700 0.8730 0.8750 0.8760 0.8780
2.274000 0.8800 0.8820 0.8820 0.8830 0.8850
2.308230 0.8850 0.8870 0.8880 0.8900 0.8900
2.342000 0.8920 0.8920 0.8940 0.8920 0.8920
2.376230 0.8940 0.8940 0.8970 0.8990 0.9020
2.411000 0.9040 0.9050 0.9050 0.9050 0.9070
2.445230 0.9070 0.9070 0.9070 0.9090 0.9110
2.479000 0.9110 0.9120 0.9120 0.9120 0.9140
2.513230 0.9140 0.9120 0.9140 0.9140 0.9140
2.547000 0.9140 0.9160 0.9170 0.9190 0.9190
2.581230 0.9190 0.9210 0.9210 0.9230 0.9230
2.616000 0.9230 0.9240 0.9260 0.9260 0.9280
2.650230 0.9290 0.9310 0.9310 0.9330 0.9330
2.684000 0.9330 0.9330 0.9330 0.9350 0.9350
2.718230 0.9350 0.9360 0.9360 0.9360 0.9350
2.753000 0.9330 0.9290 0.9260 0.9240 0.9230
2.787230 0.9190 0.9120 0.8990 0.8970 0.8920
2.821000 0.8850 0.8730 0.8610 0.8540 0.8420
2.855230 0.8390 0.8250 0.8180 0.8100 0.8010
2.890000 0.7980 0.7930 0.7810 0.7580 0.7310
2.924230 0.7040 0.6560 0.6200 0.5810 0.5410
2.958000 0.4780 0.4130 0.3810 0.3480 0.2880
2.992230 0.2350 0.2110 0.1880 0.1520 0.1260
3.026000 0.1140 0.1050 0.0990 0.0970 0.0990
3.060230 0.1000 0.1050 0.1190 0.1400 0.1600
3.095000 0.1860 0.2250 0.2490 0.2660 0.2880
3.129230 0.3000 0.3000 0.3000 0.2990 0.3000
3.163000 0.2880 0.2760 0.2660 0.2520 0.2340
3.197230 0.2030 0.1930 0.1820 0.1570 0.1330
3.232000 0.1310 0.1280 0.1260 0.1290 0.1570
3.266230 0.1880 0.2580 0.3120 0.3520 0.3930
3.300000 0.4390 0.4560 0.4640 0.4780 0.4880
3.334230 0.4990 0.5120 0.5210 0.5310 0.5350
3.369000 0.5500 0.5580 0.5600 0.5640 0.5690
3.403230 0.5940 0.6370 0.6560 0.6820 0.6880
3.437000 0.7260 0.7410 0.7500 0.7570 0.7640
3.471230 0.7720 0.7760 0.7810 0.7820 0.7820
3.505000 0.7890 0.8110 0.8220 0.8290 0.8370
3.539230 0.8420 0.8440 0.8470 0.8470 0.8470
3.574000 0.8420 0.8350 0.8270 0.8220 0.8170
3.608230 0.8100 0.8080 0.8080 0.8080 0.8080
3.642000 0.8080 0.8080 0.8100 0.8130 0.8220
3.676230 0.8350 0.8460 0.8560 0.8660 0.8750
3.711000 0.8850 0.8920 0.9000 0.9090 0.9140
3.745230 0.9190 0.9210 0.9230 0.9230 0.9240
3.779000 0.9230 0.9230 0.9230 0.9230 0.9230
3.813230 0.9230 0.9230 0.9230 0.9230 0.9240
3.848000 0.9290 0.9330 0.9350 0.9380 0.9410
3.882230 0.9430 0.9450 0.9450 0.9470 0.9480
3.916000 0.9500 0.9500 0.9500 0.9520 0.9520
3.950230 0.9530 0.9530 0.9530 0.9520 0.9530
3.984000 0.9530 0.9530 0.9550 0.9530 0.9530
4.018230 0.9530 0.9530 0.9530 0.9530 0.9530
4.053000 0.9530 0.9520 0.9520 0.9520 0.9520
4.087230 0.9500 0.9500 0.9500 0.9500 0.9480
4.121000 0.9480 0.9480 0.9480 0.9480 0.9480
4.155230 0.9480 0.9480 0.9500 0.9500 0.9500
4.190000 0.9500 0.9500 0.9500 0.9500 0.9500
4.224230 0.9520 0.9500 0.9500 0.9480 0.9480
4.258000 0.9480 0.9480 0.9480 0.9470 0.9430
4.292230 0.9430 0.9410 0.9410 0.9410 0.9410
4.326000 0.9380 0.9360 0.9350 0.9360 0.9360
4.360230 0.9380 0.9400 0.9400 0.9410 0.9410
4.395000 0.9430 0.9430 0.9410 0.9410 0.9410
4.429230 0.9410 0.9410 0.9410 0.9410 0.9430
4.463000 0.9500 0.9520 0.9520 0.9530 0.9530
4.497230 0.9530 0.9530 0.9530 0.9550 0.9550
4.532000 0.9530 0.9530 0.9550 0.9530 0.9530
4.566230 0.9530 0.9530 0.9550 0.9550 0.9550
4.600000 0.9550 0.9530 0.9530 0.9530 0.9520
4.634230 0.9520 0.9520 0.9520 0.9530 0.9530
4.669000 0.9530 0.9530 0.9530 0.9530 0.9550
4.703230 0.9550 0.9570 0.9570 0.9580 0.9580
4.737000 0.9570 0.9570 0.9570 0.9570 0.9570
4.771230 0.9550 0.9550 0.9550 0.9550 0.9550
4.805000 0.9550 0.9550 0.9550 0.9570 0.9550
4.839230 0.9550 0.9530 0.9530 0.9520 0.9500
4.874000 0.9500 0.9500 0.9500 0.9500 0.9500
4.908230 0.9500 0.9500 0.9500 0.9500 0.9500
4.942000 0.9500 0.9500 0.9500 0.9500 0.9500
4.976230 0.9520 0.9530 0.9530 0.9580 0.9620
5.011000 0.9640 0.9690 0.9700 0.9770 0.9790
5.045230 0.9790 0.9790 0.9790 0.9790 0.9790
5.079000 0.9790 0.9790 0.9790 0.9790 0.9790
5.113230 0.9790 0.9790 0.9790 0.9810 0.9810
5.148000 0.9810 0.9810 0.9810 0.9810 0.9810
5.182230 0.9840 0.9840 0.9820 0.9820 0.9820
5.216000 0.9820 0.9820 0.9820 0.9820 0.9820
5.250230 0.9820 0.9820 0.9820 0.9820 0.9820
5.284000 0.9820 0.9820 0.9840 0.9840 0.9840
5.318230 0.9840 0.9840 0.9860 0.9860 0.9880
5.353000 0.9880 0.9880 0.9880 0.9880 0.9880
5.387230 0.9880 0.9880 0.9880 0.9880 0.9880
5.421000 0.9880 0.9880 0.9880 0.9880 0.9860
5.455230 0.9840 0.9820 0.9840 0.9840 0.9840
5.490000 0.9810 0.9810 0.9810 0.9790 0.9790
5.524230 0.9790 0.9790 0.9810 0.9810 0.9810
5.558000 0.9820 0.9810 0.9810 0.9810 0.9810
5.592230 0.9810 0.9810 0.9790 0.9740 0.9720
5.627000 0.9700 0.9700 0.9690 0.9690 0.9690
5.661230 0.9690 0.9670 0.9670 0.9670 0.9670
5.695000 0.9650 0.9650 0.9620 0.9580 0.9530
5.729230 0.9500 0.9450 0.9400 0.9400 0.9380
5.763000 0.9350 0.9310 0.9290 0.9280 0.9280
5.797230 0.9280 0.9280 0.9260 0.9260 0.9260
5.832000 0.9240 0.9240 0.9230 0.9230 0.9230
5.866230 0.9210 0.9170 0.9160 0.9120 0.9110
5.900000 0.9090 0.9040 0.9020 0.9020 0.9040
5.934230 0.9070 0.9070 0.9070 0.9070 0.9050
5.969000 0.9040 0.9000 0.8970 0.8950 0.8920
6.003230 0.8850 0.8800 0.8750 0.8660 0.8590
6.037000 0.8520 0.8510 0.8510 0.8320 0.8320
6.071230 0.8230 0.8170 0.8110 0.8010 0.7980
6.106000 0.7940 0.7820 0.7770 0.7520 0.7260
6.140230 0.6630 0.6110 0.5580 0.4610 0.4180
6.174000 0.3740 0.2870 0.1980 0.1910 0.2470
6.208230 0.2940 0.3410 0.3670 0.3930 0.5230
6.242000 0.5810 0.6520 0.6730 0.6880 0.7050
6.276230 0.7190 0.7260 0.7330 0.7350 0.7400
6.311000 0.7400 0.7410 0.7500 0.7500 0.7550
6.345230 0.7570 0.7600 0.7620 0.7640 0.7650
6.379000 0.7700 0.7700 0.7690 0.7670 0.7600
6.413230 0.7470 0.7230 0.7110 0.7040 0.7020
6.448000 0.6990 0.6920 0.6820 0.6660 0.6350
6.482230 0.6110 0.5860 0.5040 0.4440 0.3820
6.516000 0.2830 0.2820 0.2290 0.2000 0.1700
6.550230 0.1090 0.0990 0.0410 0.0270 0.0250
6.585000 0.0270 0.0290 0.0420 0.0540 0.0680
6.619230 0.0920 0.1240 0.1760 0.2820 0.2920
6.653000 0.3500 0.3880 0.4880 0.5290 0.5640
6.687230 0.5960 0.6510 0.6750 0.6970 0.7170
6.721000 0.7360 0.7480 0.7530 0.7570 0.7580
6.755230 0.7580 0.7600 0.7600 0.7600 0.7600
6.790000 0.7670 0.7810 0.7840 0.7940 0.7980
6.824230 0.8050 0.8010 0.7890 0.7770 0.6580
6.858000 0.6250 0.5910 0.5240 0.4580 0.4560
6.892230 0.4300 0.4030 0.4010 0.4030 0.4590
6.927000 0.5110 0.5530 0.6490 0.6780 0.7020
6.961230 0.7330 0.7860 0.8220 0.8230 0.8230
6.995000 0.8370 0.8410 0.8440 0.8440 0.8440
7.029230 0.8460 0.8460 0.8440 0.8440 0.8420
7.064000 0.8420 0.8410 0.8350 0.8350 0.8340
7.098230 0.8340 0.8320 0.8320 0.8340 0.8340
7.132000 0.8320 0.8320 0.8320 0.8320 0.8320
7.166230 0.8300 0.8270 0.8230 0.8220 0.8200
7.200000 0.8200 0.8080 0.8030 0.7960 0.7690
7.234230 0.7430 0.7120 0.6830 0.6470 0.6300
7.269000 0.6230 0.6230 0.6320 0.6470 0.6730
7.303230 0.6880 0.7070 0.7280 0.7430 0.7550
7.337000 0.7670 0.7770 0.7890 0.8010 0.8050
7.371230 0.8050 0.8060 0.8060 0.8100 0.8060
7.406000 0.8010 0.7980 0.7940 0.7810 0.7550
7.440230 0.7430 0.7170 0.7020 0.6760 0.6630
7.474000 0.6420 0.6250 0.6010 0.6000 0.6010
7.508230 0.6080 0.6180 0.6350 0.6470 0.6610
7.543000 0.6710 0.6850 0.6970 0.7050 0.7160
7.577230 0.7260 0.7330 0.7400 0.7450 0.7520
7.611000 0.7550 0.7650 0.7670 0.7740 0.7810
7.645230 0.7880 0.7890 0.7910 0.7930 0.7960
7.679000 0.8030 0.8050 0.8050 0.8060 0.8080
7.713230 0.8080 0.8100 0.8110 0.8110 0.8130
7.748000 0.8150 0.8150 0.8170 0.8170 0.8180
7.782230 0.8180 0.8200 0.8200 0.8230 0.8230
7.816000 0.8230 0.8230 0.8230 0.8230 0.8270
7.850230 0.8290 0.8300 0.8300 0.8300 0.8300
7.885000 0.8300 0.8290 0.8270 0.8270 0.8250
7.919230 0.8250 0.8250 0.8230 0.8230 0.8230
7.953000 0.8220 0.8220 0.8200 0.8200 0.8180
7.987230 0.8180 0.8180 0.8170 0.8170 0.8170
8.022000 0.8170 0.8170 0.8150 0.8130 0.8130
8.056230 0.8130 0.8130 0.8130 0.8130 0.8170
8.090000 0.8170 0.8200 0.8200 0.8200 0.8200
8.124230 0.8200 0.8200 0.8180 0.8180 0.8170
8.158000 0.8150 0.8130 0.8060 0.8010 0.7940
8.192230 0.7860 0.7580 0.7410 0.7240 0.7210
8.227000 0.7210 0.7230 0.7380 0.7470 0.7550
8.261230 0.7600 0.7620 0.7640 0.7650 0.7670
8.295000 0.7720 0.7740 0.7740 0.7760 0.7760
8.329230 0.7760 0.7760 0.7760 0.7760 0.7760
8.364000 0.7760 0.7760 0.7760 0.7760 0.7740
8.398230 0.7740 0.7740 0.7720 0.7700 0.7700
8.432000 0.7690 0.7690 0.7670 0.7650 0.7650
8.466230 0.7620 0.7600 0.7580 0.7550 0.7550
8.500000 0.7530 0.7530 0.7520 0.7500 0.7470
8.534230 0.7450 0.7430 0.7410 0.7380 0.7360
8.569000 0.7350 0.7330 0.7310 0.7290 0.7280
8.603230 0.7230 0.7190 0.7140 0.7120 0.7110
8.637000 0.7090 0.7090 0.7040 0.7000 0.6970
8.671230 0.6920 0.6900 0.6830 0.6710 0.6700
8.706000 0.6610 0.6510 0.6490 0.6440 0.6390
8.740230 0.6370 0.6340 0.6250 0.6230 0.6220
8.774000 0.6220 0.6230 0.6350 0.6420 0.6540
8.808230 0.6630 0.6710 0.6780 0.6950 0.7050
8.843000 0.7120 0.7160 0.7210 0.7280 0.7330
8.877230 0.7470 0.7520 0.7530 0.7570 0.7600
8.911000 0.7600 0.7620 0.7640 0.7640 0.7650
8.945230 0.7650 0.7670 0.7670 0.7690 0.7690
8.979000 0.7700 0.7700 0.7700 0.7700 0.7700
9.013230 0.7720 0.7720 0.7720 0.7720 0.7740
9.048000 0.7740 0.7740 0.7740 0.7760 0.7760
9.082230 0.7760 0.7760 0.7760 0.7760 0.7760
9.116000 0.7740 0.7740 0.7740 0.7740 0.7720
9.150230 0.7700 0.7700 0.7690 0.7700 0.7700
9.185000 0.7720 0.7720 0.7740 0.7740 0.7740
9.219230 0.7740 0.7740 0.7740 0.7740 0.7740
9.253000 0.7740 0.7740 0.7740 0.7740 0.7720
9.287230 0.7720 0.7720 0.7720 0.7720 0.7700
9.322000 0.7700 0.7700 0.7700 0.7700 0.7700
9.356230 0.7720 0.7720 0.7740 0.7760 0.7740
9.390000 0.7740 0.7740 0.7740 0.7740 0.7720
9.424230 0.7720 0.7720 0.7720 0.7720 0.7700
9.458000 0.7690 0.7670 0.7640 0.7640 0.7600
9.492230 0.7580 0.7550 0.7550 0.7530 0.7520
9.527000 0.7500 0.7470 0.7410 0.7400 0.7360
9.561230 0.7330 0.7330 0.7290 0.7260 0.7240
9.595000 0.7190 0.7160 0.7110 0.7090 0.7050
9.629230 0.7020 0.6970 0.6920 0.6850 0.6760
9.664000 0.6640 0.6520 0.6340 0.6110 0.5980
9.698230 0.5820 0.5450 0.4970 0.4390 0.4050
9.732000 0.3860 0.3650 0.2750 0.2460 0.2300
9.766230 0.2290 0.2300 0.2470 0.2970 0.3410
9.801000 0.3640 0.3910 0.4990 0.5120 0.5520
9.835230 0.5960 0.6580 0.6780 0.6970 0.7120
9.869000 0.7290 0.7430 0.7570 0.7690 0.7770
9.903230 0.7860 0.7910 0.7980 0.8030 0.8100
9.937000 0.8130 0.8180 0.8200 0.8220 0.8220
9.971230 0.8230 0.8230 0.8290 0.8300 0.8320
10.006000 0.8340 0.8350 0.8370 0.8410 0.8410
10.040230 0.8420 0.8420 0.8440 0.8440 0.8460
10.074000 0.8460 0.8470 0.8470 0.8470 0.8490
10.108230 0.8490 0.8490 0.8490 0.8490 0.8510
10.143000 0.8520 0.8520 0.8520 0.8540 0.8540
10.177230 0.8560 0.8560 0.8560 0.8580 0.8580
10.211000 0.8580 0.8580 0.8580 0.8590 0.8590
10.245230 0.8610 0.8610 0.8610 0.8630 0.8630
10.280000 0.8630 0.8630 0.8610 0.8610 0.8610
10.314230 0.8630 0.8630 0.8630 0.8640 0.8640
10.348000 0.8660 0.8660 0.8680 0.8700 0.8710
10.382230 0.8710 0.8710 0.8710 0.8730 0.8730
10.416000 0.8730 0.8730 0.8710 0.8730 0.8730
10.450230 0.8730 0.8730 0.8750 0.8730 0.8750
10.485000 0.8750 0.8760 0.8760 0.8760 0.8760
10.519230 0.8760 0.8760 0.8760 0.8780 0.8800
10.553000 0.8800 0.8800 0.8820 0.8820 0.8820
10.587230 0.8830 0.8830 0.8830 0.8850 0.8850
10.622000 0.8850 0.8850 0.8870 0.8870 0.8880
10.656230 0.8880 0.8880 0.8880 0.8900 0.8900
10.690000 0.8900 0.8900 0.8920 0.8920 0.8920
10.724230 0.8920 0.8940 0.8940 0.8940 0.8940
10.759000 0.8950 0.8950 0.8950 0.8970 0.8970
10.793230 0.8970 0.8970 0.8970 0.8990 0.8990
10.827000 0.8990 0.8990 0.9000 0.9000 0.9000
10.861230 0.9000 0.9000 0.9000 0.9000 0.9000
10.895000 0.9000 0.9020 0.9000 0.9000 0.9000
10.929230 0.9000 0.9000 0.9000 0.9020 0.9000
10.964000 0.9000 0.8990 0.8990 0.8990 0.8990
10.998230 0.8970 0.8970 0.8950 0.8940 0.8900
11.032000 0.8870 0.8800 0.8730 0.8710 0.8630
11.066230 0.8540 0.8460 0.8390 0.8300 0.8180
11.101000 0.8060 0.8000 0.7910 0.7720 0.7500
11.135230 0.6990 0.6660 0.6060 0.5700 0.5330
11.169000 0.4760 0.4150 0.3960 0.3760 0.3450
11.203230 0.3400 0.3410 0.3530 0.3760 0.4320
11.238000 0.4610 0.4990 0.5310 0.5550 0.6340
11.272230 0.6610 0.7000 0.7190 0.7450 0.7650
11.306000 0.7760 0.7980 0.8300 0.8390 0.8440
11.340230 0.8510 0.8610 0.8700 0.8730 0.8820
11.374000 0.8870 0.8920 0.8970 0.9040 0.9120
11.408230 0.9190 0.9240 0.9290 0.9310 0.9350
11.443000 0.9410 0.9410 0.9430 0.9450 0.9480
11.477230 0.9500 0.9520 0.9530 0.9550 0.9570
11.511000 0.9580 0.9580 0.9600 0.9600 0.9620
11.545230 0.9620 0.9640 0.9650 0.9650 0.9670
11.580000 0.9670 0.9670 0.9670 0.9670 0.9670
11.614230 0.9670 0.9690 0.9690 0.9700 0.9700
11.648000 0.9720 0.9720 0.9740 0.9740 0.9740
11.682230 0.9740 0.9740 0.9760 0.9760 0.9760
11.717000 0.9760 0.9760 0.9760 0.9770 0.9770
11.751230 0.9770 0.9770 0.9770 0.9770 0.9770
11.785000 0.9770 0.9770 0.9770 0.9770 0.9770
11.819230 0.9770 0.9770 0.9790 0.9790 0.9790
11.853000 0.9790 0.9790 0.9790 0.9790 0.9790
11.887230 0.9790 0.9790 0.9790 0.9790 0.9790
11.922000 0.9790 0.9790 0.9790 0.9790 0.9790
11.956230 0.9790 0.9770 0.9770 0.9770 0.9770
11.990000 0.9770 0.9770 0.9770 0.9770 0.9770
12.024230 0.9770 0.9770 0.9770 0.9770 0.9770
12.059000 0.9770 0.9770 0.9760 0.9760 0.9760
12.093230 0.9760 0.9760 0.9760 0.9760 0.9760
12.127000 0.9760 0.9740 0.9740 0.9720 0.9700
12.161230 0.9690 0.9690 0.9690 0.9690 0.9670
12.196000 0.9650 0.9640 0.9640 0.9620 0.9620
12.230230 0.9620 0.9620 0.9620 0.9620 0.9600
12.264000 0.9600 0.9600 0.9600 0.9600 0.9580
12.298230 0.9580 0.9580 0.9580 0.9580 0.9600
12.332000 0.9580 0.9580 0.9570 0.9570 0.9550
12.366230 0.9550 0.9530 0.9520 0.9520 0.9500
12.401000 0.9500 0.9480 0.9470 0.9470 0.9450
12.435230 0.9430 0.9410 0.9410 0.9410 0.9410
12.469000 0.9410 0.9410 0.9400 0.9400 0.9400
12.503230 0.9400 0.9360 0.9360 0.9330 0.9330
12.538000 0.9310 0.9290 0.9290 0.9260 0.9240
12.572230 0.9230 0.9210 0.9210 0.9170 0.9140
12.606000 0.9110 0.9040 0.8990 0.8880 0.8760
12.640230 0.8610 0.8420 0.8170 0.8060 0.7960
12.674000 0.7760 0.7410 0.6970 0.6510 0.6170
12.708230 0.6050 0.5910 0.5720 0.5690 0.5690
12.743000 0.5740 0.6290 0.6490 0.6700 0.6920
12.777230 0.7110 0.7310 0.7380 0.7600 0.7620
12.811000 0.7620 0.7620 0.7600 0.7500 0.7360
12.845230 0.7020 0.6710 0.6420 0.6270 0.6180
12.880000 0.6170 0.6180 0.6320 0.6490 0.6730
12.914230 0.6920 0.7070 0.7310 0.7400 0.7500
12.948000 0.7500 0.7500 0.7450 0.7380 0.7290
12.982230 0.7170 0.7120 0.7170 0.7210 0.7350
13.017000 0.7470 0.7580 0.7720 0.7880 0.8170
13.051230 0.8270 0.8320 0.8390 0.8420 0.8490
13.085000 0.8540 0.8580 0.8590 0.8610 0.8630
13.119230 0.8640 0.8680 0.8680 0.8700 0.8700
13.153000 0.8710 0.8710 0.8730 0.8730 0.8750
13.187230 0.8760 0.8780 0.8780 0.8800 0.8780
13.222000 0.8780 0.8780 0.8780 0.8800 0.8800
13.256230 0.8780 0.8780 0.8780 0.8780 0.8780
13.290000 0.8780 0.8780 0.8780 0.8780 0.8750
13.324230 0.8750 0.8730 0.8730 0.8730 0.8710
13.359000 0.8710 0.8710 0.8710 0.8710 0.8710
13.393230 0.8710 0.8700 0.8710 0.8700 0.8700
13.427000 0.8700 0.8700 0.8680 0.8660 0.8610
13.461230 0.8610 0.8610 0.8610 0.8610 0.8590
13.496000 0.8590 0.8590 0.8590 0.8580 0.8580
13.530230 0.8580 0.8580 0.8540 0.8520 0.8510
13.564000 0.8510 0.8490 0.8490 0.8490 0.8470
13.598230 0.8460 0.8460 0.8440 0.8410 0.8410
13.632000 0.8390 0.8410 0.8390 0.8350 0.8340
13.666230 0.8320 0.8300 0.8290 0.8250 0.8250
13.701000 0.8230 0.8230 0.8220 0.8200 0.8200
13.735230 0.8180 0.8170 0.8150 0.8130 0.8130
13.769000 0.8130 0.8110 0.8100 0.8100 0.8080
13.803230 0.8050 0.8030 0.8030 0.8010 0.8010
13.838000 0.8000 0.7980 0.7960 0.7940 0.7940
13.872230 0.7940 0.7940 0.7930 0.7910 0.7910
13.906000 0.7910 0.7860 0.7840 0.7810 0.7770
13.940230 0.7740 0.7720 0.7700 0.7700 0.7650
13.975000 0.7640 0.7620 0.7600 0.7580 0.7580
14.009230 0.7550 0.7520 0.7500 0.7500 0.7450
14.043000 0.7450 0.7430 0.7430 0.7430 0.7410
14.077230 0.7400 0.7360 0.7330 0.7310 0.7290
14.111000 0.7240 0.7230 0.7210 0.7190 0.7160
14.145230 0.7160 0.7120 0.7120 0.7110 0.7090
14.180000 0.7050 0.7040 0.7020 0.7000 0.7000
14.214230 0.6990 0.6940 0.6900 0.6880 0.6830
14.248000 0.6820 0.6800 0.6780 0.6750 0.6710
14.282230 0.6710 0.6700 0.6680 0.6660 0.6630
14.317000 0.6590 0.6540 0.6520 0.6510 0.6490
14.351230 0.6470 0.6440 0.6420 0.6390 0.6340
14.385000 0.6320 0.6300 0.6250 0.6200 0.6110
14.419230 0.6100 0.6050 0.6030 0.6010 0.6000
14.454000 0.5980 0.5960 0.5910 0.5890 0.5840
14.488230 0.5810 0.5720 0.5690 0.5620 0.5550
14.522000 0.5470 0.5400 0.5290 0.5230 0.5120
14.556230 0.5090 0.4990 0.4900 0.4870 0.4760
14.590000 0.4750 0.4730 0.4700 0.4660 0.4630
14.624230 0.4610 0.4630 0.4640 0.4700 0.4750
14.659000 0.4800 0.4830 0.4920 0.4990 0.5000
14.693230 0.5040 0.5190 0.5210 0.5290 0.5350
14.727000 0.5430 0.5500 0.5550 0.5620 0.5690
14.761230 0.5700 0.5770 0.5790 0.5820 0.5890
14.796000 0.5940 0.5980 0.6050 0.6060 0.6080
14.830230 0.6110 0.6110 0.6130 0.6150 0.6150
14.864000 0.6170 0.6200 0.6220 0.6220 0.6230
14.898230 0.6250 0.6250 0.6270 0.6290 0.6300
14.933000 0.6300 0.6300 0.6320 0.6320 0.6340
14.967230 0.6340 0.6350 0.6350 0.6350 0.6370
15.001000 0.6370 0.6390 0.6410 0.6410 0.6420
15.035230 0.6420 0.6440 0.6440 0.6440 0.6460
15.069000 0.6460 0.6470 0.6470 0.6490 0.6490
15.103230 0.6490 0.6490 0.6510 0.6510 0.6510
15.138000 0.6510 0.6510 0.6510 0.6510 0.6510
15.172230 0.6510 0.6510 0.6510 0.6510 0.6510
15.206000 0.6510 0.6510 0.6490 0.6490 0.6470
15.240230 0.6470 0.6460 0.6440 0.6420 0.6410
15.275000 0.6410 0.6410 0.6390 0.6390 0.6370
15.309230 0.6370 0.6370 0.6370 0.6370 0.6370
15.343000 0.6370 0.6370 0.6350 0.6350 0.6340
15.377230 0.6340 0.6320 0.6320 0.6300 0.6320
15.412000 0.6300 0.6290 0.6290 0.6290 0.6270
15.446230 0.6250 0.6230 0.6230 0.6220 0.6220
15.480000 0.6200 0.6200 0.6180 0.6180 0.6180
15.514230 0.6170 0.6150 0.6130 0.6100 0.6080
15.548000 0.6060 0.6060 0.6050 0.6030 0.6030
15.582230 0.6030 0.6030 0.6030 0.6030 0.6030
15.617000 0.6050 0.6050 0.6030 0.6030 0.6010
15.651230 0.6010 0.6000 0.6000 0.6000 0.6000
15.685000 0.6000 0.6000 0.5980 0.5980 0.5960
15.719230 0.5940 0.5930 0.5930 0.5930 0.5930
15.754000 0.5930 0.5910 0.5910 0.5890 0.5880
15.788230 0.5860 0.5840 0.5820 0.5810 0.5790
15.822000 0.5790 0.5760 0.5760 0.5760 0.5740
15.856230 0.5740 0.5740 0.5740 0.5740 0.5720
15.891000 0.5720 0.5700 0.5700 0.5690 0.5690
15.925230 0.5670 0.5670 0.5690 0.5670 0.5670
15.959000 0.5650 0.5640 0.5640 0.5640 0.5640
15.993230 0.5650 0.5650 0.5640 0.5650
##END=
