##TITLE=1,1-DIFLUORO-2,2-DICHLORO ETHANE
##JCAMP-DX=4.24
##DATA TYPE=INFRARED SPECTRUM
##CLASS=COBLENTZ
##ORIGIN=DOW CHEMICAL COMPANY
##OWNER=COBLENTZ SOCIETY
Collection (C) 2018 copyright by the U.S. Secretary of Commerce
on behalf of the United States of America. All rights reserved.
##DATE=Not specified, most likely prior to 1970
##NAMES=1,1-dichloro-2,2-difluoroethane
##CAS REGISTRY NO=471-43-2
##MOLFORM=C2 H2 Cl2 F2
##SOURCE REFERENCE=COBLENTZ NO. 16
##$NIST SOURCE=COBLENTZ
##$NIST IMAGE=cob16
##SPECTROMETER/DATA SYSTEM=Not specified, most likely a prism, grating, or hybrid spectrometer.
##STATE=SOLUTION (10% CCl4 FOR 2.5-7.5, 10% CS2 FOR 7.5-16 MICRONS)
##PATH LENGTH=0.01 CM, 0.01 CM
$$SPECTRAL CONTAMINATION DUE TO CCl4 AROUND 1550 CM^-^1
##SAMPLING PROCEDURE=TRANSMISSION
##RESOLUTION=4
##DATA PROCESSING=DIGITIZED BY NIST FROM HARD COPY
##XUNITS=MICROMETERS
##YUNITS=TRANSMITTANCE
##XFACTOR=1.000000
##YFACTOR=1
##DELTAX=000.006696
##FIRSTX=2.042
##LASTX=15.9375
##FIRSTY=0.908
##MAXX=15.9375
##MINX=2.042
##MAXY=0.956
##MINY=0.019
##NPOINTS=2076
##XYDATA=(X++(Y..Y))
2.042000 0.9080 0.9080 0.9080 0.9080 0.9080
2.075498 0.9080 0.9080 0.9080 0.9080 0.9080
2.109000 0.9080 0.9080 0.9080 0.9080 0.9080
2.142498 0.9080 0.9080 0.9080 0.9080 0.9080
2.176000 0.9080 0.9080 0.9080 0.9080 0.9080
2.209498 0.9070 0.9080 0.9080 0.9080 0.9080
2.243000 0.9080 0.9080 0.9080 0.9080 0.9080
2.276498 0.9080 0.9080 0.9080 0.9100 0.9100
2.310000 0.9100 0.9120 0.9120 0.9120 0.9120
2.343498 0.9120 0.9120 0.9120 0.9120 0.9120
2.377000 0.9120 0.9120 0.9130 0.9130 0.9130
2.410498 0.9130 0.9130 0.9130 0.9130 0.9130
2.444000 0.9130 0.9130 0.9130 0.9130 0.9150
2.477498 0.9150 0.9150 0.9150 0.9150 0.9170
2.511000 0.9170 0.9180 0.9200 0.9200 0.9220
2.544498 0.9220 0.9230 0.9250 0.9280 0.9300
2.578000 0.9320 0.9300 0.9300 0.9300 0.9300
2.611498 0.9280 0.9300 0.9300 0.9300 0.9300
2.645000 0.9300 0.9300 0.9300 0.9300 0.9320
2.678498 0.9300 0.9300 0.9300 0.9300 0.9300
2.712000 0.9300 0.9300 0.9300 0.9300 0.9300
2.745498 0.9300 0.9300 0.9300 0.9300 0.9300
2.779000 0.9300 0.9300 0.9300 0.9300 0.9300
2.812498 0.9300 0.9300 0.9280 0.9280 0.9280
2.846000 0.9280 0.9280 0.9280 0.9280 0.9280
2.879498 0.9280 0.9280 0.9280 0.9270 0.9230
2.913000 0.9150 0.9130 0.9100 0.9080 0.9050
2.946498 0.9030 0.9030 0.9050 0.9050 0.9070
2.980000 0.9080 0.9100 0.9120 0.9130 0.9130
3.013498 0.9150 0.9150 0.9150 0.9150 0.9150
3.047000 0.9170 0.9150 0.9150 0.9150 0.9150
3.080498 0.9150 0.9150 0.9150 0.9150 0.9170
3.114000 0.9180 0.9220 0.9230 0.9250 0.9280
3.147498 0.9320 0.9320 0.9320 0.9320 0.9300
3.181000 0.9300 0.9300 0.9280 0.9280 0.9280
3.214498 0.9280 0.9280 0.9280 0.9280 0.9280
3.248000 0.9300 0.9280 0.9280 0.9280 0.9250
3.281498 0.9230 0.9200 0.9100 0.8890 0.8620
3.315000 0.8500 0.8210 0.8020 0.7990 0.7960
3.348498 0.7860 0.7860 0.8120 0.8290 0.8600
3.382000 0.8700 0.8790 0.8970 0.9070 0.9170
3.415498 0.9300 0.9300 0.9300 0.9320 0.9300
3.449000 0.9320 0.9330 0.9330 0.9330 0.9330
3.482498 0.9330 0.9330 0.9330 0.9330 0.9350
3.516000 0.9350 0.9370 0.9380 0.9400 0.9400
3.549498 0.9400 0.9400 0.9400 0.9420 0.9420
3.583000 0.9420 0.9400 0.9400 0.9400 0.9400
3.616498 0.9400 0.9400 0.9400 0.9400 0.9400
3.650000 0.9400 0.9400 0.9400 0.9400 0.9400
3.683498 0.9400 0.9400 0.9400 0.9400 0.9400
3.717000 0.9400 0.9400 0.9400 0.9400 0.9400
3.750498 0.9420 0.9420 0.9420 0.9420 0.9420
3.783000 0.9420 0.9420 0.9420 0.9420 0.9420
3.816498 0.9420 0.9420 0.9420 0.9430 0.9420
3.850000 0.9420 0.9420 0.9430 0.9430 0.9430
3.883498 0.9430 0.9430 0.9430 0.9450 0.9450
3.917000 0.9450 0.9450 0.9480 0.9480 0.9480
3.950498 0.9500 0.9480 0.9480 0.9500 0.9500
3.984000 0.9500 0.9500 0.9510 0.9510 0.9510
4.017498 0.9510 0.9510 0.9510 0.9510 0.9510
4.051000 0.9510 0.9500 0.9500 0.9480 0.9470
4.084498 0.9450 0.9450 0.9450 0.9450 0.9450
4.118000 0.9450 0.9450 0.9450 0.9450 0.9470
4.151498 0.9480 0.9480 0.9500 0.9500 0.9500
4.185000 0.9510 0.9530 0.9530 0.9550 0.9550
4.218498 0.9560 0.9550 0.9550 0.9530 0.9530
4.252000 0.9530 0.9530 0.9530 0.9530 0.9530
4.285498 0.9530 0.9530 0.9510 0.9510 0.9450
4.319000 0.9430 0.9380 0.9330 0.9320 0.9300
4.352498 0.9300 0.9300 0.9320 0.9330 0.9330
4.386000 0.9330 0.9330 0.9330 0.9330 0.9330
4.419498 0.9330 0.9330 0.9330 0.9330 0.9330
4.453000 0.9330 0.9330 0.9350 0.9350 0.9350
4.486498 0.9350 0.9400 0.9420 0.9430 0.9430
4.520000 0.9430 0.9430 0.9450 0.9450 0.9430
4.553498 0.9430 0.9420 0.9420 0.9420 0.9400
4.587000 0.9400 0.9380 0.9380 0.9370 0.9370
4.620498 0.9370 0.9350 0.9350 0.9350 0.9350
4.654000 0.9350 0.9350 0.9350 0.9350 0.9370
4.687498 0.9370 0.9420 0.9420 0.9430 0.9450
4.721000 0.9450 0.9470 0.9510 0.9510 0.9510
4.754498 0.9530 0.9530 0.9550 0.9550 0.9550
4.788000 0.9550 0.9550 0.9550 0.9550 0.9550
4.821498 0.9550 0.9550 0.9550 0.9550 0.9550
4.855000 0.9550 0.9550 0.9550 0.9550 0.9550
4.888498 0.9550 0.9550 0.9550 0.9560 0.9560
4.922000 0.9560 0.9550 0.9550 0.9550 0.9550
4.955498 0.9550 0.9550 0.9550 0.9530 0.9530
4.989000 0.9530 0.9530 0.9530 0.9530 0.9530
5.022498 0.9530 0.9530 0.9530 0.9530 0.9550
5.056000 0.9530 0.9530 0.9530 0.9530 0.9530
5.089498 0.9530 0.9530 0.9530 0.9530 0.9550
5.123000 0.9530 0.9530 0.9530 0.9530 0.9550
5.156498 0.9550 0.9550 0.9560 0.9560 0.9560
5.190000 0.9560 0.9560 0.9560 0.9560 0.9560
5.223498 0.9560 0.9560 0.9560 0.9560 0.9560
5.257000 0.9550 0.9550 0.9550 0.9550 0.9550
5.290498 0.9550 0.9530 0.9530 0.9550 0.9530
5.324000 0.9530 0.9550 0.9550 0.9530 0.9530
5.357498 0.9510 0.9470 0.9470 0.9470 0.9470
5.391000 0.9470 0.9470 0.9470 0.9470 0.9470
5.424498 0.9470 0.9470 0.9470 0.9470 0.9470
5.458000 0.9480 0.9480 0.9480 0.9470 0.9470
5.491498 0.9470 0.9470 0.9470 0.9470 0.9470
5.525000 0.9480 0.9480 0.9480 0.9480 0.9500
5.558498 0.9500 0.9500 0.9500 0.9500 0.9500
5.592000 0.9500 0.9510 0.9510 0.9510 0.9530
5.625498 0.9510 0.9510 0.9510 0.9510 0.9510
5.658000 0.9530 0.9530 0.9530 0.9510 0.9510
5.691498 0.9510 0.9510 0.9510 0.9510 0.9510
5.725000 0.9510 0.9510 0.9510 0.9510 0.9510
5.758498 0.9500 0.9500 0.9510 0.9500 0.9500
5.792000 0.9500 0.9480 0.9480 0.9480 0.9480
5.825498 0.9480 0.9480 0.9480 0.9480 0.9470
5.859000 0.9480 0.9470 0.9470 0.9470 0.9450
5.892498 0.9450 0.9450 0.9430 0.9430 0.9430
5.926000 0.9420 0.9420 0.9400 0.9400 0.9400
5.959498 0.9400 0.9420 0.9400 0.9400 0.9380
5.993000 0.9370 0.9350 0.9350 0.9330 0.9330
6.026498 0.9330 0.9300 0.9280 0.9270 0.9270
6.060000 0.9250 0.9220 0.9170 0.9170 0.9150
6.093498 0.9150 0.9130 0.9130 0.9130 0.9120
6.127000 0.9120 0.9080 0.9070 0.9030 0.9020
6.160498 0.8920 0.8850 0.8770 0.8690 0.8600
6.194000 0.8520 0.8420 0.8310 0.8170 0.8040
6.227498 0.7960 0.7860 0.7710 0.7610 0.7530
6.261000 0.7210 0.7050 0.7030 0.6950 0.6870
6.294498 0.6830 0.6780 0.6720 0.6670 0.6650
6.328000 0.6570 0.6520 0.6450 0.6350 0.6320
6.361498 0.6240 0.6220 0.6090 0.6020 0.5970
6.395000 0.5920 0.5710 0.5540 0.5490 0.5390
6.428498 0.5330 0.5260 0.5260 0.5260 0.5260
6.462000 0.5340 0.5340 0.5410 0.5520 0.5610
6.495498 0.5760 0.5910 0.6170 0.6250 0.6350
6.529000 0.6500 0.6530 0.6580 0.6630 0.6720
6.562498 0.6770 0.6850 0.6930 0.7030 0.7050
6.596000 0.7200 0.7400 0.7500 0.7560 0.7590
6.629498 0.7660 0.7780 0.7860 0.8060 0.8120
6.663000 0.8240 0.8310 0.8360 0.8410 0.8460
6.696498 0.8520 0.8540 0.8620 0.8670 0.8720
6.730000 0.8770 0.8800 0.8850 0.8900 0.8940
6.763498 0.8990 0.9000 0.9020 0.9030 0.9030
6.797000 0.9050 0.9050 0.9070 0.9070 0.9080
6.830498 0.9080 0.9080 0.9080 0.9080 0.9080
6.864000 0.9080 0.9080 0.9080 0.9080 0.9080
6.897498 0.9100 0.9100 0.9130 0.9150 0.9170
6.931000 0.9170 0.9170 0.9150 0.9120 0.9120
6.964498 0.9080 0.9100 0.9100 0.9100 0.9100
6.998000 0.9100 0.9100 0.9100 0.9100 0.9080
7.031498 0.9080 0.9080 0.9080 0.9080 0.9080
7.065000 0.9100 0.9100 0.9120 0.9120 0.9120
7.098498 0.9100 0.9070 0.9030 0.8940 0.8850
7.132000 0.8750 0.8640 0.8540 0.8340 0.8160
7.165498 0.7960 0.7280 0.6670 0.6220 0.6090
7.199000 0.5960 0.5570 0.4910 0.4330 0.4250
7.232498 0.4170 0.4250 0.4330 0.4500 0.4600
7.266000 0.4830 0.5040 0.5390 0.5620 0.6140
7.299498 0.6340 0.6450 0.6520 0.6530 0.6530
7.333000 0.6520 0.6450 0.6420 0.6370 0.6290
7.366498 0.6290 0.6420 0.6420 0.6530 0.6580
7.400000 0.6830 0.7060 0.7330 0.7580 0.7740
7.433498 0.7790 0.7860 0.7940 0.8090 0.8170
7.467000 0.8260 0.8340 0.8420 0.8470 0.8500
7.500498 0.8550 0.8550 0.8570 0.8650 0.8670
7.533000 0.8690 0.8740 0.8750 0.8770 0.8770
7.566498 0.8770 0.8790 0.8790 0.8800 0.8790
7.600000 0.8790 0.8790 0.8770 0.8750 0.8740
7.633498 0.8720 0.8640 0.8590 0.8550 0.8520
7.667000 0.8470 0.8440 0.8420 0.8370 0.8370
7.700498 0.8360 0.8320 0.8290 0.8270 0.8240
7.734000 0.8210 0.8160 0.8070 0.8060 0.8010
7.767498 0.7980 0.7940 0.7830 0.7730 0.7590
7.801000 0.7540 0.7510 0.7430 0.7380 0.7350
7.834498 0.7310 0.7250 0.7210 0.7150 0.7110
7.868000 0.7050 0.6980 0.6970 0.6970 0.7000
7.901498 0.7030 0.7060 0.7230 0.7380 0.7530
7.935000 0.7660 0.7810 0.7880 0.7910 0.7940
7.968498 0.7990 0.8040 0.8040 0.8060 0.8090
8.002000 0.8090 0.8070 0.8070 0.8070 0.8060
8.035498 0.8060 0.8040 0.8010 0.7960 0.7830
8.069000 0.7740 0.7610 0.7560 0.7530 0.7450
8.102498 0.7450 0.7430 0.7430 0.7430 0.7450
8.136000 0.7430 0.7400 0.7330 0.7250 0.7060
8.169498 0.6680 0.6340 0.6150 0.5970 0.5820
8.203000 0.5760 0.5560 0.5090 0.4700 0.4300
8.236498 0.4150 0.4050 0.4050 0.4050 0.4050
8.270000 0.4080 0.4170 0.4320 0.4500 0.4530
8.303498 0.4650 0.4860 0.5000 0.5720 0.6100
8.337000 0.6240 0.6350 0.6450 0.6530 0.6580
8.370498 0.6630 0.6700 0.6730 0.6750 0.6770
8.404000 0.6780 0.6780 0.6780 0.6780 0.6780
8.437498 0.6780 0.6780 0.6780 0.6780 0.6780
8.471000 0.6780 0.6780 0.6780 0.6770 0.6720
8.504498 0.6670 0.6570 0.6450 0.6250 0.6190
8.538000 0.6050 0.5960 0.5860 0.5670 0.5560
8.571498 0.5330 0.4980 0.4530 0.4420 0.4080
8.605000 0.3820 0.3550 0.2730 0.2300 0.2060
8.638498 0.1820 0.1530 0.1190 0.1040 0.0920
8.672000 0.0910 0.0910 0.0940 0.0960 0.1090
8.705498 0.1300 0.1520 0.1720 0.2310 0.2610
8.739000 0.2990 0.3090 0.3290 0.3420 0.3520
8.772498 0.3600 0.3620 0.3650 0.3620 0.3570
8.806000 0.3540 0.3520 0.3470 0.3460 0.3460
8.839498 0.3460 0.3460 0.3460 0.3500 0.3500
8.873000 0.3500 0.3500 0.3420 0.3320 0.3070
8.906498 0.2690 0.2510 0.2150 0.2010 0.1880
8.940000 0.1800 0.1570 0.1400 0.1370 0.1150
8.973498 0.1000 0.0960 0.0910 0.0870 0.0870
9.007000 0.0870 0.0890 0.0890 0.0910 0.0920
9.040498 0.0940 0.1020 0.1050 0.1120 0.1150
9.074000 0.1150 0.1200 0.1190 0.1140 0.1040
9.107498 0.0940 0.0810 0.0660 0.0560 0.0510
9.141000 0.0360 0.0340 0.0330 0.0280 0.0260
9.174498 0.0240 0.0210 0.0210 0.0190 0.0210
9.208000 0.0230 0.0240 0.0260 0.0260 0.0340
9.241498 0.0410 0.0510 0.0610 0.0810 0.1020
9.275000 0.1220 0.1400 0.1730 0.2230 0.2530
9.308498 0.2830 0.3070 0.3220 0.3420 0.3590
9.342000 0.3740 0.3920 0.4050 0.4150 0.4230
9.375498 0.4330 0.4380 0.4430 0.4530 0.4550
9.408000 0.4580 0.4580 0.4550 0.4530 0.4220
9.441498 0.4030 0.3820 0.3590 0.3240 0.3110
9.475000 0.2960 0.2960 0.3040 0.3110 0.3290
9.508498 0.3520 0.3820 0.4760 0.5110 0.5540
9.542000 0.5810 0.6220 0.6290 0.6340 0.6370
9.575498 0.6270 0.6170 0.6070 0.5910 0.5720
9.609000 0.5380 0.5040 0.4910 0.4710 0.4660
9.642498 0.4630 0.4680 0.4710 0.4810 0.5040
9.676000 0.5230 0.5520 0.5710 0.6370 0.6550
9.709498 0.6630 0.6870 0.7030 0.7110 0.7250
9.743000 0.7330 0.7360 0.7430 0.7430 0.7430
9.776498 0.7430 0.7430 0.7430 0.7430 0.7410
9.810000 0.7410 0.7380 0.7380 0.7430 0.7460
9.843498 0.7530 0.7560 0.7640 0.7710 0.7830
9.877000 0.7860 0.7960 0.8060 0.8140 0.8190
9.910498 0.8260 0.8270 0.8320 0.8340 0.8370
9.944000 0.8370 0.8370 0.8370 0.8370 0.8390
9.977498 0.8410 0.8420 0.8420 0.8410 0.8410
10.011000 0.8410 0.8410 0.8390 0.8360 0.8340
10.044498 0.8270 0.8240 0.8110 0.8060 0.8010
10.078000 0.7960 0.7740 0.7560 0.7350 0.7060
10.111498 0.6770 0.6350 0.6070 0.5960 0.5820
10.145000 0.5610 0.5380 0.5080 0.4950 0.4830
10.178498 0.4780 0.4800 0.4830 0.4830 0.4910
10.212000 0.5060 0.5060 0.5180 0.5230 0.5330
10.245498 0.5380 0.5460 0.5490 0.5520 0.5520
10.279000 0.5480 0.5460 0.5430 0.5430 0.5380
10.312498 0.5380 0.5430 0.5460 0.5620 0.5740
10.346000 0.6100 0.6290 0.6340 0.6450 0.6550
10.379498 0.6630 0.6700 0.6780 0.6880 0.6980
10.413000 0.7080 0.7160 0.7250 0.7350 0.7460
10.446498 0.7560 0.7640 0.7730 0.7830 0.7890
10.480000 0.8070 0.8110 0.8240 0.8260 0.8340
10.513498 0.8370 0.8410 0.8460 0.8470 0.8500
10.547000 0.8550 0.8570 0.8590 0.8620 0.8670
10.580498 0.8720 0.8750 0.8770 0.8800 0.8850
10.614000 0.8850 0.8870 0.8890 0.8900 0.8900
10.647498 0.8900 0.8950 0.8970 0.8970 0.8970
10.681000 0.8990 0.8990 0.9000 0.9000 0.9020
10.714498 0.9020 0.9020 0.9030 0.9030 0.9030
10.748000 0.9030 0.9030 0.9050 0.9050 0.9070
10.781498 0.9070 0.9070 0.9070 0.9080 0.9080
10.815000 0.9080 0.9080 0.9100 0.9080 0.9080
10.848498 0.9100 0.9080 0.9070 0.9070 0.9070
10.882000 0.9070 0.9070 0.9080 0.9080 0.9100
10.915498 0.9120 0.9120 0.9130 0.9130 0.9150
10.949000 0.9150 0.9150 0.9150 0.9170 0.9170
10.982498 0.9170 0.9170 0.9170 0.9170 0.9170
11.016000 0.9170 0.9170 0.9170 0.9170 0.9170
11.049498 0.9170 0.9170 0.9170 0.9130 0.9100
11.083000 0.9100 0.9080 0.9080 0.9080 0.9070
11.116498 0.9050 0.9050 0.9050 0.9030 0.8990
11.150000 0.8990 0.8990 0.8990 0.8970 0.8970
11.183498 0.8950 0.8940 0.8900 0.8870 0.8840
11.217000 0.8790 0.8770 0.8740 0.8700 0.8690
11.250498 0.8670 0.8640 0.8620 0.8590 0.8550
11.283000 0.8550 0.8490 0.8460 0.8410 0.8370
11.316498 0.8360 0.8310 0.8290 0.8260 0.8220
11.350000 0.8190 0.8170 0.8160 0.8110 0.8110
11.383498 0.8090 0.8090 0.8070 0.8060 0.8040
11.417000 0.8040 0.8020 0.7990 0.7940 0.7910
11.450498 0.7880 0.7860 0.7830 0.7790 0.7760
11.484000 0.7710 0.7690 0.7680 0.7640 0.7630
11.517498 0.7580 0.7560 0.7540 0.7480 0.7450
11.551000 0.7410 0.7380 0.7330 0.7280 0.7260
11.584498 0.7210 0.7180 0.7150 0.7100 0.7050
11.618000 0.7050 0.7010 0.6970 0.6920 0.6870
11.651498 0.6830 0.6780 0.6730 0.6670 0.6650
11.685000 0.6580 0.6550 0.6520 0.6440 0.6350
11.718498 0.6270 0.6220 0.6070 0.6040 0.5970
11.752000 0.5890 0.5720 0.5660 0.5540 0.5510
11.785498 0.5380 0.5280 0.5140 0.5040 0.5030
11.819000 0.4950 0.4930 0.4910 0.4900 0.4880
11.852498 0.4880 0.4860 0.4860 0.4830 0.4800
11.886000 0.4730 0.4700 0.4600 0.4510 0.4400
11.919498 0.4270 0.4120 0.4030 0.4020 0.3950
11.953000 0.3890 0.3800 0.3750 0.3720 0.3700
11.986498 0.3690 0.3650 0.3600 0.3590 0.3570
12.020000 0.3570 0.3570 0.3570 0.3550 0.3550
12.053498 0.3550 0.3550 0.3550 0.3550 0.3570
12.087000 0.3590 0.3620 0.3640 0.3640 0.3640
12.120498 0.3640 0.3600 0.3570 0.3520 0.3410
12.154000 0.3260 0.3090 0.2910 0.2690 0.2510
12.187498 0.2260 0.2030 0.1850 0.1670 0.1450
12.221000 0.1050 0.0840 0.0710 0.0590 0.0490
12.254498 0.0410 0.0340 0.0340 0.0310 0.0280
12.288000 0.0260 0.0240 0.0240 0.0230 0.0240
12.321498 0.0260 0.0260 0.0280 0.0330 0.0360
12.355000 0.0410 0.0510 0.0560 0.0620 0.0710
12.388498 0.0890 0.1070 0.1200 0.1340 0.1440
12.422000 0.1600 0.1770 0.1950 0.2280 0.2410
12.455498 0.2640 0.2880 0.3120 0.3290 0.3500
12.489000 0.3640 0.3740 0.3800 0.3920 0.4080
12.522498 0.4150 0.4200 0.4230 0.4270 0.4300
12.556000 0.4320 0.4320 0.4320 0.4300 0.4250
12.589498 0.4200 0.4130 0.4030 0.4020 0.3990
12.623000 0.3920 0.3840 0.3790 0.3690 0.3650
12.656498 0.3650 0.3640 0.3640 0.3650 0.3650
12.690000 0.3700 0.3770 0.3870 0.4120 0.4270
12.723498 0.4330 0.4550 0.4710 0.5000 0.5080
12.757000 0.5230 0.5340 0.5510 0.5570 0.5710
12.790498 0.5790 0.5890 0.6050 0.6150 0.6220
12.824000 0.6250 0.6300 0.6350 0.6370 0.6440
12.857498 0.6450 0.6530 0.6550 0.6550 0.6570
12.891000 0.6580 0.6580 0.6600 0.6600 0.6620
12.924498 0.6600 0.6580 0.6570 0.6570 0.6530
12.958000 0.6530 0.6420 0.6350 0.6250 0.6140
12.991498 0.6020 0.5970 0.5910 0.5770 0.5620
13.025000 0.5440 0.5280 0.5110 0.5030 0.4760
13.058498 0.4650 0.4560 0.4430 0.4280 0.4120
13.092000 0.4030 0.3970 0.3900 0.3800 0.3750
13.125498 0.3690 0.3650 0.3650 0.3670 0.3670
13.158000 0.3670 0.3670 0.3700 0.3750 0.3800
13.191498 0.3890 0.4130 0.4330 0.4470 0.4580
13.225000 0.4680 0.4810 0.5000 0.5130 0.5240
13.258498 0.5330 0.5380 0.5560 0.5610 0.5720
13.292000 0.5770 0.5860 0.6050 0.6050 0.6070
13.325498 0.6140 0.6190 0.6240 0.6270 0.6320
13.359000 0.6370 0.6450 0.6490 0.6550 0.6580
13.392498 0.6650 0.6700 0.6750 0.6800 0.6830
13.426000 0.6880 0.6900 0.6950 0.6980 0.7010
13.459498 0.7050 0.7050 0.7060 0.7080 0.7100
13.493000 0.7110 0.7110 0.7130 0.7130 0.7130
13.526498 0.7130 0.7130 0.7150 0.7150 0.7150
13.560000 0.7150 0.7130 0.7130 0.7110 0.7110
13.593498 0.7110 0.7080 0.7060 0.7060 0.7050
13.627000 0.7030 0.7010 0.7010 0.6980 0.6970
13.660498 0.6950 0.6950 0.6930 0.6920 0.6920
13.694000 0.6920 0.6920 0.6920 0.6920 0.6930
13.727498 0.6930 0.6950 0.6950 0.6970 0.6980
13.761000 0.7010 0.7030 0.7060 0.7080 0.7110
13.794498 0.7130 0.7150 0.7160 0.7180 0.7200
13.828000 0.7210 0.7230 0.7250 0.7280 0.7300
13.861498 0.7310 0.7310 0.7330 0.7330 0.7330
13.895000 0.7350 0.7350 0.7360 0.7360 0.7380
13.928498 0.7380 0.7380 0.7380 0.7380 0.7380
13.962000 0.7380 0.7380 0.7400 0.7400 0.7400
13.995498 0.7400 0.7400 0.7400 0.7410 0.7400
14.029000 0.7400 0.7400 0.7380 0.7380 0.7380
14.062498 0.7360 0.7360 0.7360 0.7350 0.7330
14.096000 0.7310 0.7300 0.7300 0.7300 0.7280
14.129498 0.7280 0.7260 0.7260 0.7260 0.7250
14.163000 0.7250 0.7230 0.7230 0.7210 0.7210
14.196498 0.7200 0.7200 0.7180 0.7180 0.7180
14.230000 0.7180 0.7180 0.7160 0.7150 0.7150
14.263498 0.7130 0.7130 0.7110 0.7110 0.7110
14.297000 0.7100 0.7080 0.7080 0.7080 0.7060
14.330498 0.7060 0.7050 0.7050 0.7050 0.7030
14.364000 0.7010 0.7010 0.7000 0.6980 0.6970
14.397498 0.6950 0.6950 0.6950 0.6930 0.6930
14.431000 0.6920 0.6900 0.6900 0.6880 0.6870
14.464498 0.6870 0.6850 0.6830 0.6830 0.6820
14.498000 0.6800 0.6800 0.6780 0.6770 0.6770
14.531498 0.6730 0.6720 0.6700 0.6680 0.6670
14.565000 0.6650 0.6630 0.6620 0.6600 0.6570
14.598498 0.6570 0.6550 0.6550 0.6530 0.6530
14.632000 0.6520 0.6470 0.6470 0.6450 0.6440
14.665498 0.6420 0.6400 0.6370 0.6350 0.6340
14.699000 0.6320 0.6300 0.6290 0.6250 0.6250
14.732498 0.6240 0.6240 0.6220 0.6200 0.6170
14.766000 0.6150 0.6140 0.6120 0.6100 0.6090
14.799498 0.6070 0.6050 0.6040 0.6040 0.6000
14.833000 0.5990 0.5970 0.5940 0.5920 0.5910
14.866498 0.5890 0.5870 0.5870 0.5870 0.5870
14.900000 0.5860 0.5860 0.5840 0.5840 0.5840
14.933498 0.5820 0.5810 0.5790 0.5770 0.5760
14.967000 0.5720 0.5710 0.5670 0.5640 0.5590
15.000498 0.5560 0.5520 0.5440 0.5360 0.5280
15.033000 0.5180 0.5140 0.5090 0.5060 0.5030
15.066498 0.4950 0.4880 0.4810 0.4760 0.4730
15.100000 0.4650 0.4610 0.4580 0.4560 0.4530
15.133498 0.4500 0.4430 0.4350 0.4300 0.4270
15.167000 0.4200 0.4100 0.4070 0.4030 0.4000
15.200498 0.3970 0.3920 0.3850 0.3820 0.3740
15.234000 0.3650 0.3590 0.3550 0.3500 0.3370
15.267498 0.3310 0.3260 0.3170 0.3120 0.3060
15.301000 0.3020 0.2990 0.2890 0.2830 0.2780
15.334498 0.2740 0.2660 0.2610 0.2580 0.2540
15.368000 0.2510 0.2500 0.2460 0.2410 0.2330
15.401498 0.2310 0.2300 0.2280 0.2280 0.2280
15.435000 0.2280 0.2280 0.2280 0.2300 0.2300
15.468498 0.2310 0.2310 0.2330 0.2350 0.2380
15.502000 0.2400 0.2410 0.2450 0.2510 0.2540
15.535498 0.2560 0.2590 0.2660 0.2680 0.2760
15.569000 0.2780 0.2790 0.2840 0.2860 0.2880
15.602498 0.2930 0.2960 0.3010 0.3020 0.3020
15.636000 0.3060 0.3070 0.3110 0.3120 0.3140
15.669498 0.3170 0.3220 0.3260 0.3270 0.3290
15.703000 0.3310 0.3320 0.3360 0.3390 0.3420
15.736498 0.3440 0.3460 0.3490 0.3500 0.3540
15.770000 0.3550 0.3570 0.3570 0.3590 0.3600
15.803498 0.3620 0.3640 0.3650 0.3670 0.3690
15.837000 0.3700 0.3720 0.3740 0.3740 0.3750
15.870498 0.3770 0.3790 0.3790 0.3800 0.3800
15.904000 0.3800 0.3800 0.3800 0.3800 0.3800
15.937498 0.3800
##END=
