##TITLE=Methallylcyanide
##JCAMP-DX=4.24
##DATA TYPE=INFRARED SPECTRUM
##ORIGIN=EPA-IR VAPOR PHASE LIBRARY
##OWNER=SRD/NIST
Collection (C) 2018 copyright by the U.S. Secretary of Commerce
on behalf of the United States of America. All rights reserved.
##CAS REGISTRY NO=4786-19-0
##MOLFORM=C 5 H 7 N
##$NIST SOURCE=MSDC-IR
##STATE=gas
##XUNITS=1/CM
##YUNITS=ABSORBANCE
##XFACTOR=1.
##YFACTOR=0.001
##DELTAX=1.92898
##FIRSTX=549.8
##LASTX=4000.7
##FIRSTY=0.37
##MAXX=4000.7
##MINX=549.759
##MAXY=0.0174
##MINY=0
##NPOINTS=1790
##XYDATA=(X++(Y..Y))
549.759 0.37 0.483 0.638 1.004 1.082 1.074 0.804 0.561 0.636 0.5
569.049 0.733 0.921 0.899 0.833 0.742 0.739 0.758 0.577 0.981 0.998
588.339 0.408 0.587 1.2735 1.137 0.505 0.724 1.145 1.032 0.709 0.767
607.628 0.81 0.756 0.78 0.996 0.969 0.649 0.714 1.009 0.957 0.831
626.918 1.012 1.137 1.232 1.224 0.775 0.675 0.843 0.863 1.175 1.41599
646.208 1.5847 1.5211 1.149 1.161 1.4527 1.7376 1.4877 1.167 1.187 1.3089
665.498 1.481 1.5562 1.5582 1.3297 1.4617 1.6646 1.5242 1.187 1.087 1.245
684.787 1.255 1.224 1.055 0.78 0.836 1.032 1.061 1.228 1.3287 1.168
704.077 1.139 1.249 1.184 1.004 1.004 1.223 1.192 1.2757 1.3431 1.153
723.367 1.3011 1.4928 1.40299 1.4866 1.3194 1.106 1.224 1.228 1.3093 1.42237
742.657 1.5051 1.35249 1.068 1.085 1.36158 1.5442 1.38526 1.181 1.228 1.153
761.947 1.192 1.5262 1.6506 1.7881 2.0012 2.1561 2.1691 2.0215 2.0253 2.0668
781.236 2.1044 2.1745 2.3442 2.64 2.87 2.92 2.83 2.96 3.32 3.58
800.526 3.72 4.4 4.99 4.49 3.82 3.41 3.37 3.54 3.43 3.17
819.816 2.97 3.03 2.87 2.66 2.51 2.2191 2.2159 2.1592 1.98 1.9947
839.106 1.8047 1.6471 1.7028 1.6 1.7632 1.8496 1.6489 1.5402 1.6501 1.7925
858.395 1.5476 1.4837 1.6008 1.4623 1.43694 1.45582 1.3485 1.41864 1.3277 1.177
877.685 1.163 1.19 1.2653 1.39673 1.3146 1.151 1.39541 1.4919 1.45746 1.4975
896.975 1.44127 1.2749 1.3143 1.5962 1.5242 1.3114 1.35492 1.36637 1.43027 1.39976
916.265 1.213 1.3499 1.3417 1.4641 1.8427 1.9428 1.6724 1.44267 1.43317 1.523
935.555 1.43504 1.4305 1.7012 1.6116 1.6101 1.6654 1.5581 1.5457 1.512 1.40416
954.844 1.5001 1.7369 1.7847 1.6868 1.7957 1.6821 1.5245 1.6166 1.4972 1.212
974.134 1.231 1.44488 1.44677 1.5546 1.5593 1.4749 1.41796 1.5897 1.824 1.5227
993.424 1.4857 1.7449 1.6914 1.7167 1.7343 1.42945 1.35555 1.598 1.638 1.6666
1012.714 1.5342 1.6126 2.1112 1.9506 1.8981 2.1392 2.1555 2.0348 1.817 1.6309
1032.003 1.7007 1.9262 1.8558 2.0662 2.2387 2.0017 2.1147 2.51 2.87 3.09
1051.293 2.82 2.46 2.73 3.49 3.71 3.71 4.01 4.26 4.35 4.49
1070.583 4.88 4.83 4.62 4.9 4.79 4.54 5.03 5.16 4.57 4.39
1089.873 4.87 4.53 3.83 3.52 3.38 3.16 2.57 2.41 2.0878 1.6912
1109.163 1.9356 2.0181 1.7125 1.38459 1.6663 1.7248 1.073 0.869 0.837 0.743
1128.452 1.012 1.219 1.155 0.967 0.862 1.097 1.211 1.245 1.25 1.3181
1147.742 1.051 0.876 1.2884 1.057 0.876 1.012 1.119 1.153 1.247 1.245
1167.032 1.065 0.961 1.061 1.048 1.065 1.018 0.543 0.726 1.243 1.3418
1186.322 1.17 1.147 1.40364 1.5031 1.40324 0.89 0.619 0.892 0.829 0.699
1205.611 0.659 0.872 0.986 0.916 0.873 0.52 0.14 0 0.411 0.726
1224.901 0.548 0.586 0.603 0.381 0.514 0.725 0.603 0.825 1.009 0.986
1244.191 1.015 1.051 1.157 1.064 1.064 1.123 1.178 1.3289 0.944 0.568
1263.481 0.649 0.873 0.908 0.94 0.957 0.871 1.2757 1.38185 1.204 1.183
1282.771 1.043 0.979 1.15 1.084 1.01 1.137 1.39223 1.5572 1.44614 1.4036
1302.060 1.39342 1.5134 1.5988 1.5552 1.5747 1.6027 1.61 1.6458 1.6944 1.7443
1321.350 1.8563 1.9509 1.8838 1.8691 1.9197 1.9426 2.0807 2.255 2.3237 2.42
1340.640 2.59 2.73 2.86 3.04 3.26 3.47 3.69 3.97 4.28 4.57
1359.930 4.84 5.08 5.29 5.52 5.73 5.88 6.01 6.2 6.37 6.5
1379.219 6.61 6.61 6.65 6.75 6.68 6.58 6.65 6.73 6.59 6.26
1398.509 5.92 5.54 5.19 4.93 4.7 4.48 4.28 4.07 3.93 3.96
1417.799 3.94 3.94 4.09 4.18 4.2 4.28 4.34 4.34 4.37 4.43
1437.089 4.5 4.64 4.74 4.78 4.83 4.83 4.87 4.86 4.78 4.71
1456.378 4.68 4.68 4.5 4.35 4.28 4.06 3.93 3.84 3.7 3.56
1475.668 3.5 3.43 3.28 3.14 3.15 3.15 3.06 3.04 2.99 2.96
1494.958 2.88 2.8 2.7 2.57 2.59 2.64 2.62 2.54 2.51 2.51
1514.248 2.5 2.42 2.3046 2.2992 2.2028 2.1364 2.2216 2.3314 2.2282 2.0545
1533.538 2.111 2.1332 2.2063 2.2004 2.0606 2.1483 2.1636 2.1287 2.1455 2.1276
1552.827 2.1637 2.2187 2.1902 2.1506 2.1794 2.1366 2.2027 2.2863 2.2578 2.3127
1572.117 2.3183 2.37 2.49 2.47 2.44 2.49 2.47 2.5 2.59 2.62
1591.407 2.67 2.8 2.8 2.67 2.66 2.76 2.73 2.69 2.68 2.69
1610.697 2.68 2.7 2.76 2.8 2.81 2.72 2.74 2.75 2.87 3.06
1629.986 3.1 3.18 3.31 3.37 3.39 3.4 3.37 3.47 3.47 3.4
1649.276 3.5 3.36 3.21 3.21 3.1 2.96 2.83 2.8 2.8 2.89
1668.566 2.89 2.84 2.96 3.18 3.4 3.72 4.19 4.79 5.59 6.44
1687.856 7.38 8.46 9.57 10.77 11.79 12.73 13.44 13.8 14.03 14.27
1707.146 14.73 15.39 16.39 17.4 16.72 15.41 15.65 16.44 16.9 16.75
1726.435 15.83 14.3 12.41 10.51 8.88 7.78 7.02 6.31 5.76 5.28
1745.725 4.67 4.12 3.62 3.11 2.73 2.39 2.1041 1.9468 1.8575 1.737
1765.015 1.6008 1.5887 1.6362 1.6174 1.5795 1.5752 1.5879 1.6051 1.47 1.36419
1784.305 1.4709 1.4632 1.40584 1.41956 1.44227 1.4896 1.44595 1.42983 1.43575 1.5121
1803.594 1.4938 1.3429 1.3147 1.3413 1.38795 1.39454 1.39217 1.42216 1.446 1.44023
1822.884 1.42667 1.45434 1.40428 1.2733 1.2887 1.3007 1.3483 1.41689 1.37116 1.40485
1842.174 1.45582 1.42636 1.40716 1.314 1.2797 1.40542 1.42019 1.3124 1.2697 1.3032
1861.464 1.36307 1.4072 1.38781 1.42643 1.45275 1.3441 1.254 1.3001 1.37324 1.39777
1880.754 1.38613 1.35247 1.41113 1.4638 1.4942 1.4914 1.43831 1.4885 1.5704 1.4863
1900.043 1.42581 1.45855 1.5366 1.6167 1.5136 1.4721 1.4999 1.4821 1.45446 1.43124
1919.333 1.45908 1.39605 1.39798 1.6094 1.5432 1.43032 1.5032 1.5377 1.5479 1.5271
1938.623 1.5992 1.5463 1.4805 1.5206 1.5461 1.5784 1.4679 1.43821 1.5892 1.5902
1957.913 1.5972 1.5707 1.4839 1.5088 1.45529 1.3685 1.37226 1.42553 1.4282 1.42188
1977.202 1.44883 1.38147 1.38099 1.4766 1.4901 1.43616 1.40876 1.40191 1.4718 1.503
1996.492 1.40976 1.3493 1.43794 1.5585 1.5381 1.5189 1.5104 1.52 1.6042 1.5946
2015.782 1.4952 1.5348 1.5291 1.5331 1.6129 1.6104 1.5029 1.4765 1.6333 1.569
2035.072 1.44868 1.5013 1.535 1.4935 1.4653 1.4556 1.44359 1.5235 1.5395 1.4639
2054.362 1.5105 1.5342 1.577 1.5358 1.45695 1.5111 1.4909 1.40691 1.39106 1.4621
2073.651 1.44229 1.45003 1.4797 1.4792 1.42019 1.45945 1.5439 1.5358 1.5489 1.5031
2092.941 1.4627 1.43494 1.43674 1.44058 1.44265 1.504 1.4898 1.43477 1.4417 1.40491
2112.231 1.36737 1.43177 1.45089 1.44752 1.4908 1.4753 1.4645 1.4663 1.41392 1.44085
2131.521 1.5295 1.42852 1.37112 1.4687 1.4664 1.4788 1.5292 1.5823 1.5332 1.44175
2150.810 1.5381 1.5423 1.5625 1.5687 1.4929 1.5224 1.5453 1.5839 1.6021 1.6237
2170.100 1.7608 1.7593 1.6807 1.6631 1.6194 1.6403 1.6156 1.5348 1.558 1.624
2189.390 1.6612 1.7398 1.6886 1.7543 1.9475 2.0939 2.131 2.169 2.3363 2.37
2208.680 2.43 2.61 2.78 3.01 3.26 3.45 3.42 3.31 3.35 3.44
2227.970 3.42 3.39 3.43 3.32 3.14 3.02 2.87 2.64 2.3149 2.0706
2247.259 1.9808 1.8576 1.7186 1.686 1.7027 1.6429 1.6908 1.8167 1.8158 1.8573
2266.549 1.831 1.7973 1.8577 1.7983 1.6995 1.6146 1.5793 1.5545 1.6558 1.709
2285.839 1.5859 1.5721 1.6115 1.6407 1.6514 1.7227 1.7338 1.6444 1.7195 1.8134
2305.129 1.7593 1.7186 1.7035 1.7 1.5935 1.5373 1.5455 1.5869 1.6806 1.7193
2324.418 1.7809 1.724 1.7048 1.7666 1.6345 1.5848 1.7083 1.805 1.8114 1.7488
2343.708 1.7306 1.8016 1.7928 1.6274 1.6449 1.7432 1.7438 1.8194 1.9063 1.9246
2362.998 1.8456 1.84 1.826 1.7606 1.7446 1.6876 1.7477 1.8066 1.7667 1.8713
2382.288 1.8773 1.7787 1.8397 1.8085 1.7689 1.6993 1.6078 1.6265 1.704 1.7848
2401.578 1.7354 1.6916 1.6831 1.6624 1.6787 1.6493 1.6199 1.5832 1.4951 1.6056
2420.867 1.7252 1.6334 1.6587 1.7326 1.7338 1.8058 1.8465 1.7744 1.6498 1.6354
2440.157 1.7028 1.7523 1.806 1.7821 1.7223 1.7756 1.7682 1.7254 1.6978 1.6974
2459.447 1.7415 1.7765 1.7918 1.8198 1.881 1.8012 1.7052 1.6986 1.7286 1.7676
2478.737 1.8608 1.8021 1.8929 1.9695 1.8642 1.8169 1.726 1.7239 1.7647 1.7882
2498.026 1.809 1.8318 1.9267 1.9905 1.8886 1.8068 1.7507 1.6945 1.6958 1.712
2517.316 1.7519 1.9993 1.9933 1.8221 1.7482 1.7119 1.7317 1.7256 1.7355 1.6613
2536.606 1.6889 1.6988 1.7832 1.8306 1.7374 1.747 1.7701 1.8279 1.8298 1.7942
2555.896 1.8057 1.7975 1.8506 2.0312 2.0017 1.9011 1.9011 1.7923 1.7909 1.8524
2575.186 1.7979 1.8643 1.9601 1.905 1.9656 1.9999 1.8937 1.865 1.8573 1.8591
2594.475 1.786 1.7747 1.8783 1.7713 1.7465 1.7775 1.7771 1.7838 1.8781 1.78
2613.765 1.6481 1.7806 1.7352 1.7134 1.8937 1.852 1.7547 1.798 1.7387 1.831
2633.055 1.889 1.8543 1.9005 1.9517 1.9514 1.9197 1.8854 1.9209 1.9199 1.8666
2652.345 1.9395 1.8424 1.718 1.8566 1.8338 1.7276 1.8523 1.9837 1.8861 1.8572
2671.634 2.0278 1.9789 1.9391 2.0376 2.0256 1.9133 1.8631 2.0117 2.0574 2.0201
2690.924 2.0119 1.9541 2.0034 2.0656 2.1338 2.1529 2.0352 1.8867 1.9327 2.1572
2710.214 2.1407 1.932 1.8627 1.9169 1.9888 1.997 2.0111 2.0035 1.96 2.1366
2729.504 2.1498 2.0512 2.1684 2.3231 2.3488 2.2982 2.3571 2.47 2.61 2.6
2748.794 2.57 2.59 2.63 2.79 2.8 2.8 2.88 2.83 2.67 2.54
2768.083 2.56 2.7 2.75 2.69 2.75 2.73 2.71 2.77 2.8 2.95
2787.373 2.91 2.79 2.79 2.74 2.86 2.92 2.81 2.95 3.12 3.17
2806.663 3.18 3.19 3.15 3.21 3.21 3.27 3.36 3.52 3.88 3.92
2825.953 3.93 4 3.99 3.97 4.03 4.19 4.37 4.54 4.58 4.69
2845.242 4.78 4.78 4.98 5.16 5.12 5.09 5.13 5.08 5.07 5.04
2864.532 4.94 4.98 5.14 5.23 5.21 5.02 4.97 5.01 4.89 4.89
2883.822 4.96 4.87 4.87 4.89 4.87 4.94 4.98 5.13 5.42 5.34
2903.112 5.33 5.54 5.71 6 6.47 6.69 6.94 7.45 7.75 7.93
2922.401 8.03 8.29 8.35 8.27 8.3 8.49 8.46 8.39 8.46 8.5
2941.691 8.34 7.99 7.83 7.81 7.69 7.5 7.45 7.22 6.93 6.78
2960.981 6.56 6.2 6.06 6.15 6.17 6.08 6.05 6 5.71 5.71
2980.271 5.88 5.75 5.43 5.14 5.01 4.95 5.06 5.18 5.13 5.13
2999.561 4.92 4.65 4.47 4.35 4.26 3.92 3.73 3.65 3.32 3.17
3018.850 3.1 2.8 2.78 2.81 2.73 2.84 2.92 2.84 2.82 2.86
3038.140 2.91 2.95 2.92 2.87 2.78 2.82 2.94 3.05 3.09 3.18
3057.430 3.23 3.05 3.04 3.15 3.02 2.78 2.82 2.93 2.89 3.01
3076.720 3.06 2.94 2.83 2.8 2.76 2.75 2.79 2.6 2.42 2.49
3096.009 2.51 2.4 2.3357 2.39 2.4 2.3199 2.37 2.3127 2.1593 2.2582
3115.299 2.38 2.2177 2.04 2.1714 2.2429 2.1514 2.2244 2.1475 2.0959 2.1179
3134.589 2.2107 2.2805 2.3147 2.1853 2.0498 2.1146 2.0126 1.84 1.9159 2.009
3153.879 1.986 2.0493 1.9607 1.7922 1.8168 1.8473 1.9845 2.1125 1.8451 1.7729
3173.169 1.7422 1.6901 1.7993 1.9919 1.9443 1.8442 1.8645 1.6434 1.6736 1.9566
3192.458 1.8721 1.8603 1.9602 1.7915 1.9633 2.1102 1.9187 1.7845 1.7617 1.9319
3211.748 2.0049 1.8847 1.7666 1.7576 1.8635 2.1457 2.1678 1.9379 2.0798 2.1755
3231.038 2.0708 2.0461 2.1209 2.2054 2.1488 2.0373 1.9542 1.7791 1.7153 1.7177
3250.328 1.6764 1.5215 1.6328 1.8802 1.84 1.9092 2.1292 2.1832 1.92 1.7042
3269.617 1.8 1.7819 1.6019 1.6129 1.7581 1.8841 2.0465 1.906 1.6909 1.7763
3288.907 1.969 2.0589 1.7121 1.7402 1.8438 1.5601 1.8156 1.9026 1.5969 1.45674
3308.197 1.5454 1.7397 1.719 1.6991 1.535 1.5568 1.6868 1.7217 1.8168 1.9366
3327.487 1.8457 1.859 1.9023 1.5293 1.35555 1.45412 1.6809 1.8332 1.8314 1.8217
3346.777 1.6363 1.5837 1.83 1.8897 1.8323 1.8401 1.9891 2.0718 1.9225 1.8048
3366.066 1.7737 1.8155 1.8585 1.9878 2.0942 1.9394 1.8044 1.5633 1.661 1.9706
3385.356 1.6505 1.5755 1.6142 1.5106 1.6967 1.8114 1.913 1.9503 1.823 1.652
3404.646 1.5249 1.5504 1.7789 1.9461 1.9247 1.8961 1.8589 1.7561 1.7113 2.026
3423.936 1.9721 1.9084 2.2369 2.1751 1.6652 1.5455 1.8418 1.8261 1.661 1.5757
3443.225 1.6376 1.6358 1.7535 1.7033 1.3601 1.3413 1.41458 1.37292 1.6585 1.8472
3462.515 1.7319 1.5469 1.6202 1.5599 1.38525 1.5713 1.4921 1.6039 1.8736 1.767
3481.805 1.7192 1.6654 1.7662 1.8173 1.7088 1.705 1.6144 1.5541 1.6077 1.6085
3501.095 1.4478 1.40975 1.6007 1.5924 1.42149 1.3489 1.4592 1.5769 1.42588 1.35534
3520.385 1.3427 1.471 1.7998 1.7155 1.206 1.3154 1.584 1.4755 1.5322 1.4943
3539.674 1.2717 1.35756 1.5622 1.6914 1.8637 1.8463 1.716 1.567 1.5581 1.5254
3558.964 1.202 1.062 1.4664 1.7757 1.7257 1.5127 1.4908 1.5646 1.4845 1.6854
3578.254 1.8904 1.6964 1.44309 1.43095 1.39981 1.42465 1.5329 1.4992 1.4897 1.3175
3597.544 1.151 1.235 1.36425 1.3268 1.535 1.726 1.5879 1.6199 1.37417 1.128
3616.833 1.3269 1.4809 1.5638 1.5885 1.43522 1.4791 1.5122 1.43284 1.5334 1.5155
3636.123 1.6028 1.7911 1.8629 1.6355 1.169 1.124 1.3416 1.35741 1.42829 1.43139
3655.413 1.35173 1.6036 1.68 1.45325 1.613 1.682 1.5762 1.6766 1.6963 1.6291
3674.703 1.3029 1.45579 1.7933 1.6436 1.2601 1.067 1.4781 1.6893 1.4648 1.5875
3693.993 1.6848 1.4258 1.38381 1.6526 1.9793 1.6972 1.5703 1.7736 1.5566 1.6901
3713.282 1.8875 1.843 1.7243 1.4693 1.25 1.5464 1.8668 1.6202 1.5229 1.3026
3732.572 1.35622 1.7643 1.8105 1.6798 1.4435 1.6675 1.8641 1.6538 1.7311 1.5927
3751.862 1.40046 1.5044 1.7142 1.8452 1.4892 1.4922 1.7635 1.7735 1.8829 1.8032
3771.152 1.37056 1.40164 1.5212 1.40907 1.7467 1.9062 1.6871 1.6765 1.6334 1.504
3790.441 1.6094 1.5848 1.5579 1.7032 1.5848 1.313 1.36077 1.45107 1.6041 1.6228
3809.731 1.4694 1.4705 1.5401 1.5673 1.8655 1.9818 1.6795 1.4949 1.5163 1.8038
3829.021 1.7583 1.6316 1.6207 1.5583 1.6157 1.9019 1.7699 1.555 1.6781 1.6143
3848.311 1.6046 1.6776 1.8605 1.8373 1.685 1.7446 1.6827 1.7139 1.8042 1.5537
3867.601 1.5057 1.4496 1.147 1.146 1.4867 1.562 1.5673 1.6991 1.5966 1.5447
3886.890 1.6453 1.38039 1.257 1.5889 1.7241 1.6523 1.875 2.37 2.1666 1.7685
3906.180 1.5293 1.6331 1.6194 1.3142 1.6474 1.8674 1.6054 1.6079 1.945 1.9884
3925.470 1.7765 1.6556 1.6795 1.4711 1.43903 1.5557 1.6598 1.7294 1.6978 1.4924
3944.760 1.4704 1.6891 1.7538 1.5506 1.4698 1.7262 1.3065 1.2728 1.43723 1.246
3964.049 1.287 1.6638 1.9354 1.8663 1.7499 1.6281 1.5891 1.8596 2.1457 1.7475
3983.339 1.482 1.5268 1.347 1.37614 1.4703 1.188 1.45965 2.0379 2.123 2.0331
##END=
