##TITLE=1,1-DICHLOROBUTANE
##JCAMP-DX=4.24
##DATA TYPE=INFRARED SPECTRUM
##CLASS=COBLENTZ
##ORIGIN=W.T. BOLLETER
##OWNER=COBLENTZ SOCIETY
Collection (C) 2018 copyright by the U.S. Secretary of Commerce
on behalf of the United States of America. All rights reserved.
##DATE=Not specified, most likely prior to 1970
##CAS REGISTRY NO=541-33-3
##MOLFORM=C4 H8 Cl2
##SOURCE REFERENCE=COBLENTZ NO. 4498
##$NIST SOURCE=COBLENTZ
##$NIST IMAGE=cob4498
##SPECTROMETER/DATA SYSTEM=Not specified, most likely a prism, grating, or hybrid spectrometer.
##PATH LENGTH=0.0025 CM
##SAMPLING PROCEDURE=TRANSMISSION
##RESOLUTION=4
##DATA PROCESSING=DIGITIZED BY NIST FROM HARD COPY
##XUNITS=MICROMETERS
##YUNITS=TRANSMITTANCE
##XFACTOR=1.000000
##YFACTOR=1
##DELTAX=000.017557
##FIRSTX=14.544
##LASTX=38.0355
##FIRSTY=0
##MAXX=38.0355
##MINX=14.544
##MAXY=0.873
##MINY=0
##NPOINTS=1339
##XYDATA=(X++(Y..Y))
14.544000 0.0000 0.0000 0.0000 0.0000 0.0000
14.631849 0.0000 0.0000 0.0000 0.0000 0.0000
14.720000 0.0000 0.0000 0.0000 0.0000 0.0000
14.807849 0.0000 0.0000 0.0000 0.0000 0.0000
14.895000 0.0000 0.0000 0.0000 0.0000 0.0000
14.982849 0.0000 0.0000 0.0000 0.0000 0.0000
15.071000 0.0000 0.0000 0.0000 0.0000 0.0000
15.158849 0.0000 0.0000 0.0000 0.0000 0.0000
15.247000 0.0000 0.0000 0.0000 0.0000 0.0000
15.334849 0.0000 0.0000 0.0000 0.0000 0.0000
15.422000 0.0000 0.0000 0.0000 0.0000 0.0000
15.509849 0.0000 0.0000 0.0000 0.0000 0.0000
15.598000 0.0000 0.0000 0.0000 0.0000 0.0000
15.685849 0.0000 0.0000 0.0000 0.0010 0.0030
15.773000 0.0030 0.0100 0.0170 0.0260 0.0480
15.860849 0.0670 0.0800 0.1030 0.1250 0.1440
15.949000 0.1640 0.1830 0.2030 0.2260 0.2500
16.036849 0.2750 0.2960 0.3190 0.3350 0.3510
16.124000 0.3690 0.3820 0.3960 0.4010 0.4160
16.211849 0.4280 0.4350 0.4410 0.4500 0.4510
16.300000 0.4580 0.4640 0.4670 0.4690 0.4710
16.387849 0.4750 0.4780 0.4800 0.4820 0.4850
16.475000 0.4890 0.4960 0.5000 0.5030 0.5080
16.562849 0.5100 0.5120 0.5140 0.5140 0.5170
16.651000 0.5230 0.5260 0.5280 0.5320 0.5370
16.738849 0.5410 0.5500 0.5580 0.5660 0.5750
16.827000 0.5820 0.6000 0.6080 0.6160 0.6210
16.914849 0.6300 0.6390 0.6460 0.6570 0.6660
17.002000 0.6760 0.6830 0.6910 0.6960 0.7000
17.089849 0.7010 0.7050 0.7070 0.7080 0.7100
17.178000 0.7120 0.7120 0.7140 0.7100 0.7080
17.265849 0.7070 0.7010 0.7000 0.6980 0.6910
17.353000 0.6890 0.6800 0.6690 0.6620 0.6500
17.440849 0.6370 0.6280 0.6160 0.6030 0.5750
17.529000 0.5480 0.5370 0.5170 0.5000 0.4780
17.616849 0.4530 0.4250 0.4010 0.3750 0.3460
17.704000 0.3210 0.2980 0.2750 0.2510 0.2330
17.791849 0.2260 0.2210 0.2190 0.2210 0.2260
17.880000 0.2460 0.2660 0.2960 0.3190 0.3480
17.967849 0.3820 0.4230 0.4620 0.5000 0.5260
18.056000 0.5500 0.5730 0.6030 0.6300 0.6480
18.143849 0.6640 0.6870 0.7010 0.7160 0.7350
18.231000 0.7480 0.7510 0.7620 0.7760 0.7800
18.318849 0.7830 0.7910 0.7960 0.7980 0.8030
18.407000 0.8120 0.8160 0.8210 0.8230 0.8250
18.494849 0.8250 0.8260 0.8280 0.8280 0.8280
18.582000 0.8280 0.8280 0.8280 0.8280 0.8260
18.669849 0.8260 0.8230 0.8230 0.8210 0.8210
18.758000 0.8170 0.8140 0.8120 0.8100 0.8080
18.845849 0.8030 0.8010 0.8000 0.8000 0.7980
18.933000 0.7940 0.7910 0.7870 0.7830 0.7820
19.020849 0.7820 0.7820 0.7820 0.7820 0.7830
19.109000 0.7850 0.7870 0.7960 0.7980 0.8000
19.196849 0.8010 0.8080 0.8100 0.8120 0.8140
19.285000 0.8190 0.8230 0.8250 0.8260 0.8280
19.372849 0.8320 0.8330 0.8350 0.8390 0.8410
19.460000 0.8420 0.8440 0.8460 0.8480 0.8500
19.547849 0.8500 0.8510 0.8510 0.8530 0.8550
19.636000 0.8550 0.8550 0.8570 0.8570 0.8570
19.723849 0.8580 0.8580 0.8570 0.8570 0.8570
19.811000 0.8570 0.8550 0.8550 0.8550 0.8530
19.898849 0.8530 0.8530 0.8530 0.8530 0.8510
19.987000 0.8500 0.8480 0.8480 0.8460 0.8460
20.074849 0.8440 0.8410 0.8370 0.8350 0.8350
20.162000 0.8350 0.8350 0.8330 0.8330 0.8330
20.249849 0.8330 0.8320 0.8300 0.8280 0.8260
20.338000 0.8250 0.8230 0.8210 0.8210 0.8190
20.425849 0.8170 0.8160 0.8140 0.8120 0.8100
20.514000 0.8080 0.8080 0.8050 0.8030 0.8000
20.601849 0.8000 0.7980 0.7960 0.7920 0.7890
20.689000 0.7870 0.7830 0.7800 0.7780 0.7760
20.776849 0.7730 0.7710 0.7670 0.7660 0.7640
20.865000 0.7620 0.7580 0.7530 0.7510 0.7500
20.952849 0.7460 0.7420 0.7410 0.7350 0.7320
21.040000 0.7280 0.7260 0.7230 0.7190 0.7170
21.127849 0.7160 0.7080 0.7030 0.7010 0.7000
21.216000 0.6980 0.6870 0.6850 0.6830 0.6780
21.303849 0.6730 0.6690 0.6660 0.6600 0.6580
21.391000 0.6510 0.6500 0.6460 0.6330 0.6260
21.478849 0.6170 0.6100 0.6070 0.6010 0.5980
21.567000 0.5870 0.5760 0.5690 0.5580 0.5510
21.654849 0.5390 0.5300 0.5190 0.5120 0.5030
21.743000 0.5000 0.4830 0.4710 0.4550 0.4480
21.830849 0.4370 0.4230 0.4120 0.4000 0.3820
21.918000 0.3580 0.3440 0.3170 0.2920 0.2830
22.005849 0.2760 0.2510 0.2250 0.2160 0.2030
22.094000 0.1960 0.1710 0.1510 0.1370 0.1250
22.181849 0.1170 0.1050 0.0980 0.0800 0.0730
22.269000 0.0710 0.0690 0.0690 0.0690 0.0690
22.356849 0.0710 0.0730 0.0780 0.0850 0.0920
22.445000 0.1050 0.1230 0.1420 0.1640 0.1800
22.532849 0.2000 0.2050 0.2280 0.2500 0.2690
22.620000 0.2830 0.3030 0.3300 0.3500 0.3660
22.707849 0.3850 0.4030 0.4230 0.4370 0.4500
22.796000 0.4580 0.4710 0.4820 0.4980 0.5030
22.883849 0.5170 0.5280 0.5350 0.5480 0.5570
22.971000 0.5710 0.5820 0.5910 0.6000 0.6050
23.058849 0.6100 0.6140 0.6210 0.6280 0.6330
23.147000 0.6410 0.6500 0.6510 0.6550 0.6580
23.234849 0.6660 0.6710 0.6760 0.6780 0.6820
23.323000 0.6890 0.6890 0.6920 0.6940 0.6960
23.410849 0.6980 0.7000 0.7030 0.7050 0.7080
23.498000 0.7100 0.7120 0.7120 0.7140 0.7160
23.585849 0.7190 0.7210 0.7230 0.7250 0.7260
23.674000 0.7300 0.7300 0.7320 0.7330 0.7330
23.761849 0.7350 0.7350 0.7350 0.7370 0.7390
23.849000 0.7410 0.7420 0.7420 0.7420 0.7460
23.936849 0.7460 0.7480 0.7480 0.7500 0.7500
24.025000 0.7500 0.7500 0.7500 0.7510 0.7510
24.112849 0.7510 0.7530 0.7530 0.7510 0.7510
24.200000 0.7500 0.7500 0.7480 0.7480 0.7480
24.287849 0.7460 0.7460 0.7440 0.7410 0.7390
24.376000 0.7390 0.7370 0.7330 0.7300 0.7280
24.463849 0.7260 0.7250 0.7210 0.7190 0.7160
24.552000 0.7120 0.7070 0.7010 0.7000 0.6980
24.639849 0.6870 0.6820 0.6750 0.6710 0.6670
24.727000 0.6660 0.6620 0.6600 0.6570 0.6550
24.814849 0.6510 0.6500 0.6460 0.6440 0.6410
24.903000 0.6390 0.6350 0.6320 0.6300 0.6250
24.990849 0.6190 0.6140 0.6070 0.6010 0.6000
25.078000 0.5960 0.5910 0.5850 0.5800 0.5760
25.165849 0.5750 0.5730 0.5670 0.5660 0.5620
25.254000 0.5580 0.5550 0.5510 0.5500 0.5480
25.341849 0.5420 0.5420 0.5410 0.5390 0.5390
25.429000 0.5390 0.5390 0.5370 0.5370 0.5370
25.516849 0.5390 0.5390 0.5390 0.5410 0.5410
25.605000 0.5440 0.5460 0.5480 0.5510 0.5550
25.692849 0.5620 0.5640 0.5660 0.5670 0.5710
25.781000 0.5750 0.5760 0.5800 0.5820 0.5850
25.868849 0.5910 0.6000 0.6010 0.6030 0.6050
25.956000 0.6080 0.6160 0.6230 0.6260 0.6320
26.043849 0.6350 0.6390 0.6420 0.6480 0.6500
26.132000 0.6510 0.6550 0.6550 0.6580 0.6620
26.219849 0.6640 0.6670 0.6690 0.6730 0.6750
26.307000 0.6760 0.6800 0.6820 0.6830 0.6870
26.394849 0.6890 0.6890 0.6910 0.6920 0.6980
26.483000 0.7000 0.7030 0.7030 0.7050 0.7050
26.570849 0.7080 0.7100 0.7120 0.7140 0.7140
26.658000 0.7160 0.7170 0.7210 0.7230 0.7250
26.745849 0.7320 0.7350 0.7410 0.7420 0.7440
26.834000 0.7480 0.7500 0.7500 0.7500 0.7500
26.921849 0.7500 0.7500 0.7510 0.7510 0.7510
27.010000 0.7530 0.7550 0.7570 0.7580 0.7580
27.097849 0.7600 0.7620 0.7640 0.7640 0.7640
27.185000 0.7640 0.7640 0.7640 0.7640 0.7640
27.272849 0.7640 0.7600 0.7600 0.7570 0.7550
27.361000 0.7500 0.7480 0.7440 0.7370 0.7300
27.448849 0.7260 0.7190 0.7140 0.7010 0.6920
27.536000 0.6780 0.6710 0.6550 0.6420 0.6300
27.623849 0.6190 0.6030 0.6000 0.5820 0.5660
27.712000 0.5480 0.5280 0.5100 0.4960 0.4750
27.799849 0.4530 0.4300 0.4120 0.4000 0.3820
27.887000 0.3640 0.3460 0.3300 0.3140 0.3000
27.974849 0.2830 0.2670 0.2510 0.2370 0.2260
28.063000 0.2190 0.2140 0.2120 0.2080 0.2050
28.150849 0.2030 0.2010 0.2000 0.2000 0.2010
28.238000 0.2010 0.2030 0.2080 0.2140 0.2230
28.325849 0.2280 0.2320 0.2410 0.2510 0.2600
28.414000 0.2690 0.2800 0.2910 0.3030 0.3160
28.501849 0.3320 0.3460 0.3580 0.3730 0.3890
28.590000 0.4030 0.4210 0.4330 0.4500 0.4570
28.677849 0.4760 0.4980 0.5050 0.5230 0.5390
28.765000 0.5530 0.5690 0.5870 0.6010 0.6140
28.852849 0.6250 0.6370 0.6500 0.6580 0.6690
28.941000 0.6800 0.6940 0.7000 0.7120 0.7250
29.028849 0.7320 0.7390 0.7420 0.7460 0.7500
29.116000 0.7530 0.7570 0.7600 0.7640 0.7660
29.203849 0.7670 0.7710 0.7760 0.7820 0.7850
29.292000 0.7870 0.7890 0.7920 0.8000 0.8000
29.379849 0.8010 0.8050 0.8070 0.8080 0.8080
29.467000 0.8080 0.8100 0.8100 0.8120 0.8120
29.554849 0.8120 0.8120 0.8140 0.8140 0.8140
29.643000 0.8140 0.8140 0.8140 0.8140 0.8140
29.730849 0.8140 0.8140 0.8120 0.8120 0.8120
29.819000 0.8120 0.8120 0.8120 0.8100 0.8100
29.906849 0.8080 0.8080 0.8070 0.8050 0.8030
29.994000 0.8010 0.8000 0.7980 0.7960 0.7940
30.081849 0.7920 0.7870 0.7850 0.7830 0.7820
30.170000 0.7780 0.7760 0.7710 0.7690 0.7660
30.257849 0.7640 0.7530 0.7500 0.7370 0.7300
30.345000 0.7260 0.7230 0.7190 0.7120 0.7080
30.432849 0.7010 0.7000 0.6980 0.6920 0.6820
30.521000 0.6780 0.6750 0.6710 0.6640 0.6550
30.608849 0.6480 0.6370 0.6280 0.6190 0.6120
30.696000 0.6080 0.6050 0.6030 0.6000 0.5980
30.783849 0.5940 0.5920 0.5910 0.5870 0.5830
30.872000 0.5800 0.5760 0.5730 0.5660 0.5640
30.959849 0.5620 0.5580 0.5550 0.5510 0.5500
31.048000 0.5480 0.5440 0.5410 0.5410 0.5390
31.135849 0.5370 0.5350 0.5350 0.5350 0.5350
31.223000 0.5370 0.5370 0.5370 0.5370 0.5370
31.310849 0.5390 0.5390 0.5410 0.5410 0.5440
31.399000 0.5460 0.5510 0.5510 0.5550 0.5580
31.486849 0.5620 0.5670 0.5710 0.5750 0.5780
31.574000 0.5800 0.5850 0.5890 0.5960 0.5980
31.661849 0.6010 0.6100 0.6140 0.6170 0.6210
31.750000 0.6260 0.6370 0.6460 0.6500 0.6550
31.837849 0.6580 0.6620 0.6690 0.6760 0.6800
31.925000 0.6820 0.6890 0.6960 0.7000 0.7010
32.012849 0.7070 0.7120 0.7170 0.7210 0.7250
32.101000 0.7300 0.7330 0.7370 0.7390 0.7410
32.188849 0.7480 0.7500 0.7530 0.7570 0.7620
32.277000 0.7660 0.7670 0.7730 0.7780 0.7820
32.364849 0.7830 0.7870 0.7890 0.7920 0.7960
32.452000 0.7980 0.8000 0.8010 0.8050 0.8080
32.539849 0.8100 0.8120 0.8120 0.8120 0.8140
32.628000 0.8170 0.8190 0.8230 0.8230 0.8250
32.715849 0.8260 0.8300 0.8330 0.8370 0.8390
32.803000 0.8390 0.8410 0.8420 0.8440 0.8460
32.890849 0.8480 0.8480 0.8480 0.8480 0.8500
32.979000 0.8510 0.8550 0.8550 0.8530 0.8530
33.066849 0.8510 0.8510 0.8510 0.8510 0.8500
33.154000 0.8500 0.8480 0.8460 0.8440 0.8440
33.241849 0.8420 0.8420 0.8420 0.8440 0.8440
33.330000 0.8460 0.8460 0.8480 0.8480 0.8500
33.417849 0.8510 0.8510 0.8530 0.8550 0.8570
33.505000 0.8570 0.8600 0.8620 0.8620 0.8640
33.592849 0.8640 0.8640 0.8640 0.8640 0.8640
33.681000 0.8640 0.8660 0.8660 0.8670 0.8690
33.768849 0.8690 0.8690 0.8690 0.8690 0.8710
33.857000 0.8710 0.8710 0.8710 0.8690 0.8690
33.944849 0.8690 0.8690 0.8690 0.8710 0.8710
34.032000 0.8710 0.8710 0.8710 0.8710 0.8710
34.119849 0.8710 0.8730 0.8730 0.8710 0.8690
34.208000 0.8660 0.8620 0.8620 0.8620 0.8620
34.295849 0.8640 0.8640 0.8640 0.8640 0.8640
34.383000 0.8640 0.8640 0.8640 0.8640 0.8640
34.470849 0.8640 0.8640 0.8640 0.8620 0.8620
34.559000 0.8600 0.8580 0.8570 0.8550 0.8550
34.646849 0.8510 0.8500 0.8480 0.8390 0.8370
34.734000 0.8350 0.8330 0.8300 0.8280 0.8260
34.821849 0.8250 0.8230 0.8210 0.8190 0.8190
34.910000 0.8190 0.8170 0.8140 0.8140 0.8140
34.997849 0.8120 0.8100 0.8070 0.8050 0.8050
35.086000 0.8010 0.8010 0.8010 0.8000 0.8000
35.173849 0.8000 0.7980 0.7980 0.7960 0.7960
35.261000 0.7940 0.7940 0.7920 0.7910 0.7890
35.348849 0.7890 0.7890 0.7890 0.7890 0.7870
35.437000 0.7870 0.7870 0.7850 0.7850 0.7820
35.524849 0.7780 0.7730 0.7660 0.7620 0.7580
35.612000 0.7570 0.7530 0.7510 0.7500 0.7500
35.699849 0.7480 0.7480 0.7480 0.7480 0.7460
35.788000 0.7460 0.7440 0.7420 0.7410 0.7410
35.875849 0.7370 0.7350 0.7330 0.7320 0.7300
35.963000 0.7260 0.7250 0.7230 0.7210 0.7190
36.050849 0.7170 0.7160 0.7140 0.7120 0.7080
36.139000 0.7050 0.7030 0.7010 0.6980 0.6960
36.226849 0.6960 0.6960 0.6940 0.6940 0.6940
36.315000 0.6940 0.6920 0.6910 0.6890 0.6890
36.402849 0.6850 0.6850 0.6830 0.6820 0.6800
36.490000 0.6780 0.6780 0.6760 0.6750 0.6710
36.577849 0.6670 0.6660 0.6640 0.6640 0.6620
36.666000 0.6600 0.6580 0.6580 0.6570 0.6550
36.753849 0.6550 0.6550 0.6550 0.6550 0.6530
36.841000 0.6510 0.6500 0.6500 0.6480 0.6480
36.928849 0.6420 0.6410 0.6390 0.6370 0.6330
37.017000 0.6320 0.6300 0.6280 0.6260 0.6230
37.104849 0.6190 0.6160 0.6100 0.6080 0.6070
37.192000 0.6050 0.6030 0.6010 0.6010 0.6000
37.279849 0.6000 0.6000 0.5980 0.5980 0.5980
37.368000 0.5960 0.5960 0.5940 0.5940 0.5920
37.455849 0.5910 0.5890 0.5850 0.5850 0.5830
37.544000 0.5830 0.5830 0.5820 0.5820 0.5780
37.631849 0.5760 0.5750 0.5750 0.5750 0.5730
37.719000 0.5710 0.5660 0.5660 0.5640 0.5620
37.806849 0.5620 0.5600 0.5570 0.5530 0.5500
37.895000 0.5500 0.5480 0.5460 0.5420 0.5370
37.982849 0.5350 0.5330 0.5320 0.5320
##END=
