##TITLE=ALLYLETHYL ETHER
$$ E.K. NO. 1525
##JCAMP-DX=4.24
##DATA TYPE=INFRARED SPECTRUM
##CLASS=COBLENTZ
##ORIGIN=DOW CHEMICAL COMPANY
##OWNER=COBLENTZ SOCIETY
Collection (C) 2018 copyright by the U.S. Secretary of Commerce
on behalf of the United States of America. All rights reserved.
##DATE=Not specified, most likely prior to 1970
##NAMES=allyl ethyl ether
3-ethoxy-1-propene
##CAS REGISTRY NO=557-31-3
##MOLFORM=C5 H10 O
##SOURCE REFERENCE=COBLENTZ NO. 1761
##$NIST SOURCE=COBLENTZ
##$NIST IMAGE=cob1761
##SPECTROMETER/DATA SYSTEM=Not specified, most likely a prism, grating, or hybrid spectrometer.
##STATE=SOLUTION (10% CCl4 FOR 5000-1330, 10% CS2 FOR 1330-625 CM^-^1)
##PATH LENGTH=0.0111 CM, 0.0115 CM
$$SPECTRAL CONTAMINATION DUE TO CCl4 AROUND 1550, AND AN UNKNOWN AROUND 3300 CM^-^1
##SAMPLING PROCEDURE=TRANSMISSION
##RESOLUTION=4
##DATA PROCESSING=DIGITIZED BY NIST FROM HARD COPY
##XUNITS=MICROMETERS
##YUNITS=TRANSMITTANCE
##XFACTOR=1.000000
##YFACTOR=1
##DELTAX=000.006856
##FIRSTX=2.062
##LASTX=15.911
##FIRSTY=0.9
##MAXX=15.911
##MINX=2.062
##MAXY=0.9
##MINY=0.041
##NPOINTS=2021
##XYDATA=(X++(Y..Y))
2.062000 0.9000 0.8980 0.8980 0.8980 0.8970
2.096297 0.8970 0.8970 0.8970 0.8970 0.8970
2.130000 0.8970 0.8980 0.8980 0.8980 0.8980
2.164297 0.9000 0.9000 0.9000 0.9000 0.9000
2.199000 0.8970 0.8900 0.8880 0.8850 0.8810
2.233297 0.8790 0.8780 0.8740 0.8730 0.8730
2.267000 0.8710 0.8670 0.8660 0.8640 0.8620
2.301297 0.8620 0.8590 0.8570 0.8570 0.8570
2.336000 0.8570 0.8610 0.8620 0.8640 0.8710
2.370297 0.8710 0.8730 0.8730 0.8740 0.8760
2.405000 0.8760 0.8760 0.8760 0.8760 0.8780
2.439297 0.8780 0.8780 0.8780 0.8780 0.8780
2.473000 0.8780 0.8780 0.8780 0.8780 0.8780
2.507297 0.8780 0.8780 0.8780 0.8780 0.8780
2.542000 0.8780 0.8790 0.8790 0.8810 0.8830
2.576297 0.8850 0.8850 0.8850 0.8860 0.8860
2.610000 0.8880 0.8880 0.8880 0.8900 0.8910
2.644297 0.8930 0.8930 0.8930 0.8930 0.8930
2.679000 0.8910 0.8900 0.8900 0.8880 0.8860
2.713297 0.8850 0.8810 0.8780 0.8730 0.8660
2.747000 0.8610 0.8520 0.8430 0.8350 0.8260
2.781297 0.8160 0.8040 0.7970 0.7890 0.7890
2.816000 0.7830 0.7750 0.7650 0.7530 0.7350
2.850297 0.7180 0.6960 0.6720 0.6550 0.6410
2.884000 0.6290 0.6240 0.6190 0.6050 0.6020
2.918297 0.5980 0.5980 0.5960 0.5960 0.5960
2.953000 0.5950 0.5950 0.5950 0.5930 0.5930
2.987297 0.5930 0.5930 0.5930 0.5930 0.5950
3.022000 0.5960 0.6000 0.6030 0.6070 0.6140
3.056297 0.6200 0.6220 0.6440 0.6530 0.6600
3.090000 0.6670 0.6750 0.6840 0.6920 0.7030
3.124297 0.7110 0.7220 0.7300 0.7390 0.7470
3.159000 0.7560 0.7630 0.7680 0.7730 0.7780
3.193297 0.7870 0.7920 0.7940 0.7950 0.7940
3.227000 0.7780 0.7700 0.7560 0.7420 0.7280
3.261297 0.7160 0.6980 0.6700 0.6600 0.6580
3.296000 0.6600 0.6740 0.6940 0.6990 0.7030
3.330297 0.7010 0.6720 0.6170 0.5660 0.5280
3.364000 0.4880 0.4490 0.3390 0.2280 0.2240
3.398297 0.2280 0.2770 0.2910 0.3080 0.3240
3.433000 0.3410 0.3410 0.3220 0.3010 0.2760
3.467297 0.2640 0.2410 0.2190 0.1970 0.1690
3.501000 0.1500 0.1490 0.1520 0.1620 0.1730
3.535297 0.1830 0.1920 0.2430 0.2830 0.3200
3.570000 0.3550 0.3920 0.4300 0.4750 0.5740
3.604297 0.6030 0.6200 0.6310 0.6380 0.6480
3.639000 0.6680 0.6800 0.7010 0.7200 0.7300
3.673297 0.7390 0.7470 0.7560 0.7650 0.7710
3.707000 0.7800 0.7870 0.7940 0.8010 0.8070
3.741297 0.8130 0.8190 0.8250 0.8310 0.8370
3.776000 0.8420 0.8450 0.8540 0.8570 0.8620
3.810297 0.8640 0.8640 0.8640 0.8640 0.8640
3.844000 0.8620 0.8620 0.8620 0.8620 0.8640
3.878297 0.8660 0.8670 0.8690 0.8730 0.8760
3.913000 0.8790 0.8810 0.8810 0.8830 0.8850
3.947297 0.8860 0.8860 0.8880 0.8880 0.8910
3.981000 0.8910 0.8930 0.8930 0.8930 0.8930
4.015297 0.8930 0.8930 0.8930 0.8930 0.8930
4.050000 0.8930 0.8930 0.8930 0.8930 0.8930
4.084297 0.8930 0.8930 0.8930 0.8930 0.8930
4.119000 0.8930 0.8930 0.8930 0.8930 0.8930
4.153297 0.8930 0.8930 0.8930 0.8930 0.8930
4.187000 0.8930 0.8910 0.8910 0.8900 0.8880
4.221297 0.8880 0.8860 0.8860 0.8860 0.8860
4.256000 0.8860 0.8860 0.8860 0.8860 0.8850
4.290297 0.8850 0.8850 0.8850 0.8880 0.8880
4.324000 0.8880 0.8880 0.8880 0.8880 0.8860
4.358297 0.8850 0.8830 0.8810 0.8810 0.8810
4.393000 0.8790 0.8790 0.8790 0.8790 0.8790
4.427297 0.8810 0.8830 0.8850 0.8850 0.8880
4.461000 0.8880 0.8880 0.8900 0.8900 0.8910
4.495297 0.8930 0.8930 0.8950 0.8950 0.8950
4.530000 0.8950 0.8950 0.8950 0.8950 0.8950
4.564297 0.8970 0.8970 0.8970 0.8970 0.8970
4.598000 0.8970 0.8970 0.8970 0.8970 0.8970
4.632297 0.8980 0.8980 0.8980 0.8980 0.8980
4.667000 0.8980 0.8980 0.8980 0.8980 0.8980
4.701297 0.8980 0.8980 0.8980 0.8980 0.8980
4.736000 0.8980 0.8980 0.8980 0.8980 0.8980
4.770297 0.8980 0.8980 0.8980 0.8980 0.8980
4.804000 0.8980 0.8980 0.8980 0.8980 0.8980
4.838297 0.8980 0.8980 0.8980 0.8980 0.8980
4.873000 0.8980 0.8980 0.8980 0.8980 0.8980
4.907297 0.8980 0.8980 0.8980 0.8970 0.8950
4.941000 0.8930 0.8930 0.8910 0.8910 0.8900
4.975297 0.8850 0.8850 0.8810 0.8790 0.8740
5.010000 0.8730 0.8690 0.8660 0.8640 0.8640
5.044297 0.8640 0.8640 0.8660 0.8660 0.8670
5.078000 0.8690 0.8710 0.8730 0.8780 0.8780
5.112297 0.8780 0.8780 0.8780 0.8780 0.8760
5.147000 0.8760 0.8760 0.8760 0.8760 0.8780
5.181297 0.8780 0.8790 0.8790 0.8790 0.8790
5.215000 0.8790 0.8810 0.8830 0.8830 0.8830
5.249297 0.8850 0.8860 0.8860 0.8880 0.8880
5.284000 0.8860 0.8860 0.8850 0.8850 0.8850
5.318297 0.8830 0.8810 0.8810 0.8790 0.8760
5.353000 0.8730 0.8670 0.8640 0.8590 0.8570
5.387297 0.8540 0.8520 0.8490 0.8450 0.8420
5.421000 0.8400 0.8380 0.8400 0.8420 0.8490
5.455297 0.8550 0.8660 0.8740 0.8740 0.8790
5.490000 0.8880 0.8900 0.8930 0.8950 0.8950
5.524297 0.8970 0.8980 0.8980 0.8980 0.8980
5.558000 0.8980 0.8980 0.8980 0.8980 0.8980
5.592297 0.8980 0.8980 0.8980 0.8980 0.8980
5.627000 0.8980 0.8970 0.8970 0.8950 0.8950
5.661297 0.8930 0.8910 0.8910 0.8900 0.8900
5.695000 0.8880 0.8860 0.8790 0.8780 0.8740
5.729297 0.8690 0.8640 0.8550 0.8470 0.8380
5.764000 0.8300 0.8210 0.8110 0.8020 0.7940
5.798297 0.7890 0.7820 0.7800 0.7820 0.7830
5.833000 0.7890 0.7920 0.7990 0.8040 0.8130
5.867297 0.8230 0.8260 0.8300 0.8310 0.8330
5.901000 0.8370 0.8400 0.8430 0.8470 0.8500
5.935297 0.8570 0.8570 0.8540 0.8470 0.8420
5.970000 0.8350 0.8300 0.8230 0.8140 0.8040
6.004297 0.7900 0.7710 0.7630 0.7560 0.7560
6.038000 0.7490 0.7390 0.7250 0.7130 0.6990
6.072297 0.6800 0.6790 0.6790 0.6800 0.6890
6.107000 0.7040 0.7250 0.7460 0.7750 0.7900
6.141297 0.8020 0.8070 0.8090 0.8070 0.8070
6.175000 0.8010 0.7970 0.7950 0.7920 0.7890
6.209297 0.7830 0.7820 0.7800 0.7730 0.7680
6.244000 0.7530 0.7390 0.7200 0.7100 0.6960
6.278297 0.6860 0.6750 0.6650 0.6580 0.6550
6.312000 0.6460 0.6430 0.6340 0.6310 0.6270
6.346297 0.6270 0.6220 0.6200 0.6150 0.6080
6.381000 0.6030 0.6000 0.5950 0.5860 0.5760
6.415297 0.5590 0.5350 0.5260 0.5120 0.5040
6.450000 0.4990 0.4930 0.4920 0.4920 0.4920
6.484297 0.4950 0.4990 0.5160 0.5210 0.5500
6.518000 0.5690 0.5840 0.5950 0.6020 0.6100
6.552297 0.6170 0.6260 0.6310 0.6380 0.6440
6.587000 0.6510 0.6560 0.6630 0.6700 0.6770
6.621297 0.6840 0.6860 0.6890 0.6960 0.7040
6.655000 0.7130 0.7180 0.7230 0.7280 0.7320
6.689297 0.7320 0.7300 0.7180 0.7040 0.6840
6.724000 0.6500 0.6310 0.6080 0.6070 0.6080
6.758297 0.6150 0.6240 0.6340 0.6430 0.6440
6.792000 0.6560 0.6580 0.6580 0.6560 0.6500
6.826297 0.6340 0.6190 0.6000 0.5790 0.5590
6.861000 0.5350 0.5110 0.5060 0.4990 0.4800
6.895297 0.4680 0.4630 0.4610 0.4590 0.4610
6.929000 0.4680 0.4750 0.4800 0.4920 0.4990
6.963297 0.5180 0.5180 0.5190 0.5190 0.5090
6.998000 0.5020 0.5000 0.4990 0.4880 0.4680
7.032297 0.4640 0.4590 0.4540 0.4520 0.4510
7.067000 0.4510 0.4540 0.4590 0.4640 0.4710
7.101297 0.4730 0.4730 0.4710 0.4630 0.4540
7.135000 0.4400 0.4270 0.4150 0.4040 0.3970
7.169297 0.3960 0.3960 0.3970 0.4010 0.4110
7.204000 0.4270 0.4400 0.4510 0.4560 0.4590
7.238297 0.4630 0.4630 0.4630 0.4630 0.4560
7.272000 0.4560 0.4540 0.4560 0.4590 0.4780
7.306297 0.4930 0.5230 0.5430 0.5780 0.5860
7.341000 0.5880 0.5880 0.5860 0.5640 0.5400
7.375297 0.5210 0.5070 0.5000 0.4930 0.4810
7.409000 0.4660 0.4590 0.4470 0.4470 0.4420
7.443297 0.4370 0.4350 0.4370 0.4510 0.4750
7.478000 0.5540 0.5930 0.6270 0.6440 0.6510
7.512297 0.6560 0.6580 0.6580 0.6600 0.6650
7.547000 0.6680 0.6700 0.6700 0.6720 0.6750
7.581297 0.6750 0.6790 0.6790 0.6790 0.6790
7.615000 0.6790 0.6770 0.6700 0.6630 0.6550
7.649297 0.6480 0.6460 0.6410 0.6380 0.6320
7.684000 0.6270 0.6220 0.6200 0.6190 0.6190
7.718297 0.6190 0.6190 0.6200 0.6200 0.6240
7.752000 0.6290 0.6340 0.6390 0.6410 0.6430
7.786297 0.6440 0.6440 0.6430 0.6410 0.6360
7.821000 0.6320 0.6240 0.6150 0.6050 0.6030
7.855297 0.5950 0.5930 0.5830 0.5810 0.5780
7.889000 0.5760 0.5760 0.5780 0.5790 0.5840
7.923297 0.5950 0.6190 0.6380 0.6510 0.6650
7.958000 0.6750 0.6840 0.6890 0.6960 0.6990
7.992297 0.7030 0.7060 0.7080 0.7100 0.7110
8.026000 0.7150 0.7160 0.7180 0.7220 0.7230
8.060297 0.7270 0.7300 0.7340 0.7370 0.7400
8.095000 0.7460 0.7490 0.7530 0.7580 0.7580
8.129297 0.7590 0.7590 0.7590 0.7590 0.7590
8.164000 0.7580 0.7580 0.7530 0.7510 0.7510
8.198297 0.7490 0.7490 0.7490 0.7470 0.7460
8.232000 0.7460 0.7460 0.7460 0.7460 0.7460
8.266297 0.7440 0.7420 0.7370 0.7320 0.7230
8.301000 0.7130 0.6990 0.6840 0.6750 0.6680
8.335297 0.6550 0.6410 0.6240 0.6140 0.6100
8.369000 0.6070 0.6030 0.6020 0.6000 0.6000
8.403297 0.5980 0.5960 0.5930 0.5900 0.5830
8.438000 0.5720 0.5590 0.5520 0.5430 0.5330
8.472297 0.5210 0.5110 0.5000 0.4970 0.4920
8.506000 0.4850 0.4780 0.4750 0.4730 0.4690
8.540297 0.4660 0.4630 0.4590 0.4520 0.4450
8.575000 0.4330 0.4280 0.4180 0.4080 0.3940
8.609297 0.3820 0.3670 0.3600 0.3490 0.3390
8.643000 0.3270 0.3150 0.3050 0.2950 0.2860
8.677297 0.2790 0.2690 0.2620 0.2530 0.2460
8.712000 0.2400 0.2400 0.2400 0.2400 0.2400
8.746297 0.2410 0.2410 0.2410 0.2410 0.2400
8.781000 0.2360 0.2310 0.2260 0.2140 0.2020
8.815297 0.1880 0.1800 0.1730 0.1570 0.1490
8.849000 0.1350 0.1250 0.1180 0.1090 0.0990
8.883297 0.0940 0.0870 0.0840 0.0800 0.0780
8.918000 0.0770 0.0730 0.0700 0.0650 0.0610
8.952297 0.0600 0.0580 0.0560 0.0560 0.0560
8.986000 0.0580 0.0580 0.0600 0.0600 0.0540
9.020297 0.0510 0.0490 0.0480 0.0460 0.0440
9.055000 0.0420 0.0410 0.0410 0.0410 0.0410
9.089297 0.0410 0.0410 0.0410 0.0410 0.0410
9.123000 0.0410 0.0410 0.0410 0.0420 0.0460
9.157297 0.0510 0.0540 0.0580 0.0600 0.0680
9.192000 0.0750 0.0850 0.0940 0.1040 0.1110
9.226297 0.1230 0.1260 0.1350 0.1440 0.1520
9.261000 0.1610 0.1690 0.1780 0.1850 0.1900
9.295297 0.1920 0.1930 0.1950 0.1970 0.1980
9.329000 0.1980 0.1980 0.1980 0.1970 0.1950
9.363297 0.1930 0.1920 0.1920 0.1920 0.1930
9.398000 0.1970 0.2020 0.2090 0.2190 0.2310
9.432297 0.2380 0.2450 0.2520 0.2600 0.2690
9.466000 0.2790 0.2890 0.2950 0.2980 0.3050
9.500297 0.3100 0.3170 0.3240 0.3290 0.3370
9.535000 0.3410 0.3460 0.3490 0.3560 0.3610
9.569297 0.3700 0.3750 0.3790 0.3820 0.3850
9.603000 0.3920 0.4030 0.4040 0.4090 0.4130
9.637297 0.4150 0.4180 0.4180 0.4180 0.4200
9.672000 0.4200 0.4200 0.4200 0.4200 0.4180
9.706297 0.4180 0.4150 0.4110 0.4040 0.3990
9.740000 0.3940 0.3940 0.3920 0.3910 0.3890
9.774297 0.3840 0.3820 0.3820 0.3800 0.3790
9.809000 0.3790 0.3720 0.3680 0.3670 0.3650
9.843297 0.3630 0.3610 0.3580 0.3550 0.3530
9.878000 0.3510 0.3490 0.3480 0.3480 0.3490
9.912297 0.3510 0.3550 0.3580 0.3600 0.3610
9.946000 0.3630 0.3670 0.3680 0.3680 0.3680
9.980297 0.3680 0.3600 0.3440 0.3310 0.3170
10.015000 0.2980 0.2790 0.2600 0.2410 0.2240
10.049297 0.2090 0.1970 0.1850 0.1760 0.1710
10.083000 0.1680 0.1680 0.1660 0.1660 0.1690
10.117297 0.1740 0.1810 0.1880 0.1950 0.2020
10.152000 0.2070 0.2140 0.2190 0.2260 0.2340
10.186297 0.2430 0.2550 0.2650 0.2790 0.2950
10.220000 0.3120 0.3310 0.3490 0.3650 0.3820
10.254297 0.3990 0.4180 0.4350 0.4490 0.4560
10.289000 0.4730 0.4850 0.4950 0.5140 0.5230
10.323297 0.5300 0.5380 0.5470 0.5590 0.5690
10.357000 0.5760 0.5840 0.5900 0.5950 0.6020
10.391297 0.6070 0.6120 0.6200 0.6240 0.6310
10.426000 0.6340 0.6380 0.6410 0.6430 0.6460
10.460297 0.6480 0.6510 0.6510 0.6530 0.6530
10.495000 0.6530 0.6530 0.6530 0.6530 0.6530
10.529297 0.6530 0.6530 0.6510 0.6500 0.6460
10.563000 0.6430 0.6340 0.6260 0.6170 0.6070
10.597297 0.5960 0.5880 0.5780 0.5660 0.5550
10.632000 0.5450 0.5330 0.5210 0.5110 0.5060
10.666297 0.4990 0.4850 0.4730 0.4610 0.4470
10.700000 0.4350 0.4210 0.4080 0.3920 0.3800
10.734297 0.3600 0.3360 0.3120 0.2880 0.2650
10.769000 0.2450 0.2240 0.2070 0.1880 0.1730
10.803297 0.1570 0.1440 0.1300 0.1200 0.1110
10.837000 0.1020 0.0960 0.0900 0.0870 0.0870
10.871297 0.0850 0.0850 0.0870 0.0890 0.0920
10.906000 0.0990 0.1080 0.1210 0.1350 0.1540
10.940297 0.1740 0.1980 0.2240 0.2530 0.2810
10.975000 0.3050 0.3250 0.3480 0.3720 0.3960
11.009297 0.4270 0.4610 0.5180 0.5350 0.5520
11.043000 0.5670 0.5840 0.6000 0.6150 0.6310
11.077297 0.6430 0.6480 0.6560 0.6650 0.6720
11.112000 0.6770 0.6840 0.6890 0.6920 0.6980
11.146297 0.6990 0.7010 0.7010 0.7030 0.7040
11.180000 0.7040 0.7040 0.7040 0.7030 0.7030
11.214297 0.6990 0.6960 0.6860 0.6860 0.6750
11.249000 0.6670 0.6560 0.6480 0.6380 0.6260
11.283297 0.6170 0.6070 0.5980 0.5900 0.5830
11.317000 0.5760 0.5710 0.5690 0.5670 0.5670
11.351297 0.5670 0.5690 0.5710 0.5720 0.5760
11.386000 0.5790 0.5840 0.5900 0.5960 0.6020
11.420297 0.6070 0.6120 0.6150 0.6220 0.6240
11.454000 0.6290 0.6290 0.6310 0.6320 0.6390
11.488297 0.6390 0.6410 0.6440 0.6480 0.6500
11.523000 0.6510 0.6530 0.6560 0.6580 0.6580
11.557297 0.6600 0.6600 0.6600 0.6600 0.6600
11.592000 0.6620 0.6620 0.6620 0.6620 0.6620
11.626297 0.6620 0.6620 0.6620 0.6620 0.6620
11.660000 0.6620 0.6600 0.6600 0.6600 0.6600
11.694297 0.6580 0.6580 0.6560 0.6560 0.6560
11.729000 0.6560 0.6550 0.6530 0.6500 0.6480
11.763297 0.6460 0.6440 0.6440 0.6430 0.6430
11.797000 0.6430 0.6430 0.6430 0.6430 0.6440
11.831297 0.6480 0.6480 0.6500 0.6560 0.6630
11.866000 0.6700 0.6800 0.6870 0.6940 0.6990
11.900297 0.7100 0.7150 0.7220 0.7270 0.7350
11.934000 0.7440 0.7460 0.7540 0.7610 0.7660
11.968297 0.7700 0.7750 0.7780 0.7830 0.7890
12.003000 0.7920 0.7970 0.8020 0.8060 0.8060
12.037297 0.8090 0.8110 0.8140 0.8140 0.8160
12.071000 0.8160 0.8160 0.8180 0.8180 0.8190
12.105297 0.8210 0.8230 0.8230 0.8250 0.8250
12.140000 0.8250 0.8250 0.8250 0.8250 0.8230
12.174297 0.8230 0.8210 0.8210 0.8180 0.8130
12.209000 0.8070 0.8010 0.7970 0.7950 0.7920
12.243297 0.7900 0.7890 0.7850 0.7820 0.7800
12.277000 0.7750 0.7710 0.7700 0.7680 0.7680
12.311297 0.7680 0.7680 0.7680 0.7680 0.7680
12.346000 0.7680 0.7680 0.7680 0.7700 0.7710
12.380297 0.7730 0.7750 0.7770 0.7780 0.7800
12.414000 0.7820 0.7830 0.7850 0.7850 0.7890
12.448297 0.7890 0.7890 0.7890 0.7900 0.7900
12.483000 0.7900 0.7920 0.7940 0.7940 0.7950
12.517297 0.7970 0.7990 0.8010 0.8020 0.8040
12.551000 0.8070 0.8070 0.8110 0.8140 0.8180
12.585297 0.8180 0.8190 0.8210 0.8230 0.8230
12.620000 0.8250 0.8260 0.8260 0.8280 0.8280
12.654297 0.8300 0.8310 0.8310 0.8330 0.8330
12.689000 0.8330 0.8330 0.8330 0.8330 0.8350
12.723297 0.8350 0.8350 0.8350 0.8370 0.8370
12.757000 0.8400 0.8420 0.8430 0.8430 0.8450
12.791297 0.8450 0.8470 0.8490 0.8490 0.8490
12.826000 0.8490 0.8490 0.8490 0.8490 0.8500
12.860297 0.8500 0.8500 0.8500 0.8500 0.8500
12.894000 0.8520 0.8540 0.8550 0.8550 0.8570
12.928297 0.8570 0.8590 0.8590 0.8590 0.8590
12.963000 0.8590 0.8590 0.8590 0.8590 0.8590
12.997297 0.8590 0.8590 0.8590 0.8590 0.8590
13.031000 0.8590 0.8590 0.8590 0.8570 0.8570
13.065297 0.8550 0.8550 0.8540 0.8540 0.8520
13.100000 0.8520 0.8520 0.8520 0.8500 0.8500
13.134297 0.8490 0.8470 0.8470 0.8450 0.8450
13.168000 0.8430 0.8430 0.8420 0.8420 0.8400
13.202297 0.8400 0.8380 0.8380 0.8370 0.8370
13.237000 0.8370 0.8370 0.8350 0.8330 0.8310
13.271297 0.8300 0.8280 0.8260 0.8260 0.8260
13.306000 0.8260 0.8260 0.8250 0.8250 0.8250
13.340297 0.8250 0.8250 0.8230 0.8230 0.8210
13.374000 0.8210 0.8190 0.8180 0.8160 0.8160
13.408297 0.8140 0.8140 0.8110 0.8110 0.8090
13.443000 0.8070 0.8070 0.8060 0.8060 0.8060
13.477297 0.8040 0.8040 0.8020 0.8020 0.8010
13.511000 0.8010 0.8010 0.7990 0.7990 0.7990
13.545297 0.7990 0.7990 0.7970 0.7970 0.7950
13.580000 0.7950 0.7940 0.7920 0.7900 0.7890
13.614297 0.7890 0.7870 0.7870 0.7850 0.7850
13.648000 0.7830 0.7830 0.7820 0.7820 0.7800
13.682297 0.7800 0.7780 0.7780 0.7770 0.7750
13.717000 0.7730 0.7730 0.7710 0.7710 0.7700
13.751297 0.7680 0.7680 0.7660 0.7650 0.7650
13.786000 0.7630 0.7630 0.7610 0.7610 0.7610
13.820297 0.7590 0.7580 0.7580 0.7560 0.7540
13.854000 0.7540 0.7540 0.7540 0.7530 0.7530
13.888297 0.7530 0.7530 0.7510 0.7510 0.7490
13.923000 0.7490 0.7470 0.7460 0.7460 0.7420
13.957297 0.7420 0.7400 0.7400 0.7390 0.7390
13.991000 0.7370 0.7370 0.7350 0.7350 0.7340
14.025297 0.7320 0.7320 0.7300 0.7280 0.7270
14.060000 0.7270 0.7250 0.7230 0.7220 0.7220
14.094297 0.7200 0.7180 0.7180 0.7160 0.7150
14.128000 0.7150 0.7130 0.7110 0.7110 0.7100
14.162297 0.7080 0.7080 0.7060 0.7040 0.7040
14.197000 0.7030 0.7010 0.7010 0.6990 0.6980
14.231297 0.6960 0.6960 0.6940 0.6920 0.6910
14.265000 0.6890 0.6890 0.6870 0.6870 0.6840
14.299297 0.6820 0.6800 0.6790 0.6790 0.6790
14.334000 0.6770 0.6770 0.6750 0.6740 0.6720
14.368297 0.6720 0.6700 0.6700 0.6700 0.6680
14.403000 0.6650 0.6620 0.6600 0.6600 0.6560
14.437297 0.6560 0.6550 0.6550 0.6530 0.6530
14.471000 0.6530 0.6510 0.6500 0.6480 0.6440
14.505297 0.6430 0.6410 0.6410 0.6390 0.6380
14.540000 0.6380 0.6380 0.6360 0.6340 0.6340
14.574297 0.6310 0.6290 0.6270 0.6240 0.6220
14.608000 0.6200 0.6190 0.6150 0.6150 0.6140
14.642297 0.6120 0.6080 0.6050 0.6050 0.6020
14.677000 0.6000 0.6000 0.5980 0.5950 0.5910
14.711297 0.5880 0.5880 0.5840 0.5840 0.5830
14.745000 0.5830 0.5810 0.5790 0.5790 0.5760
14.779297 0.5760 0.5720 0.5710 0.5690 0.5690
14.814000 0.5670 0.5640 0.5620 0.5620 0.5600
14.848297 0.5600 0.5590 0.5590 0.5590 0.5590
14.882000 0.5570 0.5550 0.5550 0.5540 0.5520
14.916297 0.5500 0.5480 0.5450 0.5450 0.5430
14.951000 0.5420 0.5420 0.5400 0.5380 0.5360
14.985297 0.5360 0.5350 0.5330 0.5310 0.5280
15.020000 0.5260 0.5230 0.5190 0.5180 0.5180
15.054297 0.5120 0.5110 0.5090 0.5040 0.5000
15.088000 0.5000 0.5000 0.4990 0.4970 0.4950
15.122297 0.4900 0.4880 0.4850 0.4830 0.4810
15.157000 0.4780 0.4750 0.4730 0.4690 0.4690
15.191297 0.4680 0.4680 0.4630 0.4610 0.4610
15.225000 0.4590 0.4590 0.4590 0.4570 0.4540
15.259297 0.4520 0.4510 0.4450 0.4450 0.4420
15.294000 0.4420 0.4420 0.4400 0.4400 0.4400
15.328297 0.4390 0.4390 0.4390 0.4370 0.4370
15.362000 0.4350 0.4350 0.4330 0.4330 0.4320
15.396297 0.4320 0.4300 0.4300 0.4300 0.4300
15.431000 0.4280 0.4280 0.4280 0.4280 0.4270
15.465297 0.4270 0.4270 0.4270 0.4270 0.4270
15.500000 0.4250 0.4250 0.4230 0.4230 0.4210
15.534297 0.4210 0.4210 0.4210 0.4200 0.4200
15.568000 0.4200 0.4200 0.4180 0.4180 0.4180
15.602297 0.4200 0.4180 0.4180 0.4180 0.4180
15.637000 0.4160 0.4160 0.4160 0.4150 0.4150
15.671297 0.4150 0.4150 0.4150 0.4130 0.4130
15.705000 0.4130 0.4130 0.4110 0.4110 0.4110
15.739297 0.4110 0.4090 0.4090 0.4090 0.4090
15.774000 0.4090 0.4090 0.4090 0.4090 0.4110
15.808297 0.4090 0.4090 0.4090 0.4090 0.4090
15.842000 0.4090 0.4090 0.4090 0.4090 0.4090
15.876297 0.4090 0.4090 0.4090 0.4090 0.4090
15.911000 0.4090
##END=
