##TITLE=BROMOIODOMETHANE
$$ COL. CHEM.
##JCAMP-DX=4.24
##DATA TYPE=INFRARED SPECTRUM
##CLASS=COBLENTZ
##ORIGIN=WYANDOTTE CHEMICALS CORP., WYANDOTTE, MICHIGAN, USA
##OWNER=COBLENTZ SOCIETY
Collection (C) 2018 copyright by the U.S. Secretary of Commerce
on behalf of the United States of America. All rights reserved.
##DATE=Not specified, most likely prior to 1970
##NAMES=bromo(iodo)methane
##CAS REGISTRY NO=557-68-6
##MOLFORM=C H2 Br I
##SOURCE REFERENCE=COBLENTZ NO. 1304
##$NIST SOURCE=COBLENTZ
##$NIST IMAGE=cob1304
##SPECTROMETER/DATA SYSTEM=Not specified, most likely a prism, grating, or hybrid spectrometer.
##STATE=LIQUID
##PATH LENGTH=0.005 CM
##SAMPLING PROCEDURE=TRANSMISSION
##RESOLUTION=4
##DATA PROCESSING=DIGITIZED BY NIST FROM HARD COPY
##XUNITS=MICROMETERS
##YUNITS=TRANSMITTANCE
##XFACTOR=1.000000
##YFACTOR=1
##DELTAX=000.006803
##FIRSTX=2.007
##LASTX=15.9656
##FIRSTY=1
##MAXX=15.9656
##MINX=2.007
##MAXY=1.001
##MINY=0.023
##NPOINTS=2053
##XYDATA=(X++(Y..Y))
2.007000 1.0000 1.0000 1.0000 0.9980 1.0000
2.041030 1.0000 1.0000 0.9980 0.9980 0.9980
2.075000 0.9980 0.9980 0.9980 0.9980 0.9980
2.109030 0.9980 1.0000 1.0000 1.0000 1.0010
2.143000 1.0010 1.0000 0.9980 1.0000 1.0000
2.177030 1.0000 1.0000 0.9860 0.9690 0.9330
2.211000 0.8970 0.8780 0.8640 0.8640 0.8880
2.245030 0.9240 0.9430 0.9550 0.9700 0.9770
2.279000 0.9790 0.9820 0.9880 0.9890 0.9890
2.313030 0.9890 0.9910 0.9910 0.9910 0.9890
2.347000 0.9880 0.9820 0.9740 0.9570 0.9410
2.381030 0.9170 0.9000 0.8700 0.8510 0.8510
2.415000 0.8710 0.9000 0.9210 0.9410 0.9550
2.449030 0.9770 0.9820 0.9910 0.9960 0.9980
2.483000 1.0000 1.0000 1.0000 1.0000 1.0000
2.517030 1.0000 1.0000 1.0000 1.0000 1.0000
2.551000 1.0000 1.0000 1.0000 1.0000 1.0000
2.585030 1.0000 0.9960 0.9910 0.9810 0.9700
2.619000 0.9620 0.9600 0.9620 0.9720 0.9790
2.653030 0.9810 0.9820 0.9840 0.9840 0.9880
2.687000 0.9910 0.9930 0.9930 0.9930 0.9930
2.721030 0.9910 0.9910 0.9910 0.9890 0.9880
2.755000 0.9860 0.9860 0.9860 0.9840 0.9840
2.789030 0.9820 0.9790 0.9760 0.9720 0.9700
2.823000 0.9690 0.9690 0.9670 0.9670 0.9670
2.857030 0.9670 0.9670 0.9670 0.9670 0.9670
2.891000 0.9670 0.9640 0.9620 0.9600 0.9570
2.925030 0.9570 0.9570 0.9570 0.9550 0.9550
2.959000 0.9550 0.9550 0.9550 0.9550 0.9570
2.993030 0.9570 0.9580 0.9570 0.9570 0.9570
3.027000 0.9550 0.9550 0.9550 0.9550 0.9530
3.061030 0.9520 0.9500 0.9500 0.9480 0.9480
3.095000 0.9430 0.9400 0.9380 0.9380 0.9380
3.129030 0.9350 0.9330 0.9310 0.9290 0.9280
3.163000 0.9230 0.9190 0.9190 0.9190 0.9170
3.197030 0.9110 0.9040 0.8950 0.8900 0.8760
3.231000 0.8660 0.8470 0.8270 0.8060 0.7810
3.265030 0.7040 0.6610 0.6290 0.5230 0.4000
3.299000 0.2710 0.2290 0.3190 0.4080 0.4660
3.333030 0.5230 0.6440 0.7650 0.7690 0.7620
3.367000 0.6950 0.6510 0.6080 0.6010 0.6010
3.401030 0.6590 0.6730 0.6820 0.6900 0.6970
3.435000 0.6990 0.6990 0.6870 0.6870 0.6920
3.469030 0.7240 0.7400 0.7550 0.7790 0.7910
3.503000 0.8080 0.8150 0.8150 0.8170 0.8130
3.537030 0.8000 0.8000 0.8000 0.8080 0.8390
3.571000 0.8470 0.8830 0.9000 0.9120 0.9140
3.605030 0.9140 0.9170 0.9190 0.9230 0.9260
3.639000 0.9290 0.9310 0.9290 0.9290 0.9290
3.673030 0.9290 0.9290 0.9310 0.9310 0.9310
3.707000 0.9310 0.9330 0.9350 0.9380 0.9400
3.741030 0.9410 0.9410 0.9410 0.9410 0.9430
3.776000 0.9450 0.9470 0.9500 0.9530 0.9570
3.810030 0.9600 0.9640 0.9640 0.9640 0.9640
3.844000 0.9690 0.9690 0.9690 0.9690 0.9690
3.878030 0.9690 0.9670 0.9670 0.9670 0.9690
3.912000 0.9690 0.9690 0.9690 0.9650 0.9640
3.946030 0.9620 0.9600 0.9600 0.9600 0.9600
3.980000 0.9620 0.9620 0.9580 0.9480 0.9410
4.014030 0.9280 0.8990 0.8880 0.8880 0.8970
4.048000 0.9230 0.9360 0.9430 0.9500 0.9520
4.082030 0.9550 0.9580 0.9580 0.9580 0.9580
4.116000 0.9580 0.9570 0.9570 0.9500 0.9500
4.150030 0.9520 0.9520 0.9600 0.9600 0.9580
4.184000 0.9580 0.9580 0.9580 0.9580 0.9600
4.218030 0.9640 0.9650 0.9670 0.9670 0.9650
4.252000 0.9670 0.9670 0.9670 0.9690 0.9690
4.286030 0.9700 0.9720 0.9720 0.9720 0.9720
4.320000 0.9720 0.9720 0.9720 0.9720 0.9720
4.354030 0.9720 0.9720 0.9720 0.9720 0.9720
4.388000 0.9700 0.9670 0.9600 0.9530 0.9430
4.422030 0.9330 0.9170 0.9020 0.8900 0.8820
4.456000 0.8800 0.8820 0.8950 0.9070 0.9240
4.490030 0.9330 0.9360 0.9410 0.9480 0.9530
4.524000 0.9580 0.9620 0.9650 0.9690 0.9690
4.558030 0.9690 0.9650 0.9570 0.9550 0.9500
4.592000 0.9410 0.9290 0.9120 0.9070 0.8970
4.626030 0.8920 0.8950 0.9000 0.9090 0.9160
4.660000 0.9210 0.9260 0.9330 0.9410 0.9500
4.694030 0.9600 0.9650 0.9650 0.9640 0.9640
4.728000 0.9570 0.9520 0.9480 0.9410 0.9170
4.762030 0.8950 0.8630 0.8110 0.7820 0.7820
4.796000 0.7860 0.8420 0.8730 0.8990 0.9210
4.830030 0.9400 0.9550 0.9620 0.9670 0.9700
4.864000 0.9760 0.9770 0.9790 0.9790 0.9790
4.898030 0.9770 0.9770 0.9760 0.9770 0.9720
4.932000 0.9700 0.9690 0.9700 0.9720 0.9770
4.966030 0.9790 0.9820 0.9860 0.9880 0.9880
5.000000 0.9890 0.9880 0.9880 0.9880 0.9880
5.034030 0.9890 0.9890 0.9890 0.9890 0.9890
5.068000 0.9890 0.9890 0.9890 0.9890 0.9880
5.102030 0.9880 0.9880 0.9880 0.9880 0.9880
5.136000 0.9890 0.9890 0.9890 0.9890 0.9880
5.170030 0.9880 0.9910 0.9910 0.9910 0.9890
5.204000 0.9890 0.9890 0.9890 0.9890 0.9890
5.238030 0.9890 0.9890 0.9890 0.9890 0.9880
5.272000 0.9880 0.9860 0.9820 0.9810 0.9790
5.306030 0.9790 0.9770 0.9740 0.9700 0.9690
5.340000 0.9690 0.9690 0.9700 0.9740 0.9790
5.374030 0.9790 0.9820 0.9860 0.9880 0.9880
5.408000 0.9890 0.9910 0.9910 0.9930 0.9930
5.442030 0.9910 0.9910 0.9910 0.9910 0.9890
5.476000 0.9890 0.9820 0.9790 0.9720 0.9700
5.510030 0.9700 0.9700 0.9690 0.9700 0.9790
5.544000 0.9810 0.9820 0.9840 0.9880 0.9880
5.578030 0.9890 0.9890 0.9880 0.9880 0.9880
5.612000 0.9880 0.9880 0.9860 0.9860 0.9880
5.646030 0.9880 0.9880 0.9880 0.9880 0.9880
5.680000 0.9840 0.9790 0.9770 0.9700 0.9690
5.714030 0.9690 0.9700 0.9700 0.9700 0.9690
5.748000 0.9690 0.9690 0.9690 0.9670 0.9650
5.782030 0.9640 0.9620 0.9600 0.9600 0.9600
5.816000 0.9580 0.9570 0.9500 0.9350 0.9160
5.850030 0.9110 0.9110 0.9120 0.9120 0.9170
5.884000 0.9240 0.9290 0.9310 0.9310 0.9330
5.918030 0.9380 0.9410 0.9450 0.9470 0.9450
5.952000 0.9400 0.9330 0.9310 0.9310 0.9280
5.986030 0.9240 0.9230 0.9210 0.9190 0.9190
6.020000 0.9190 0.9190 0.9190 0.9170 0.9160
6.054030 0.9120 0.9110 0.9110 0.9110 0.9110
6.088000 0.9110 0.9110 0.9140 0.9170 0.9190
6.122030 0.9190 0.9210 0.9230 0.9240 0.9240
6.156000 0.9240 0.9240 0.9240 0.9240 0.9240
6.190030 0.9240 0.9230 0.9230 0.9230 0.9230
6.224000 0.9210 0.9190 0.9210 0.9240 0.9290
6.258030 0.9310 0.9330 0.9350 0.9380 0.9470
6.293000 0.9480 0.9480 0.9480 0.9480 0.9480
6.327030 0.9480 0.9520 0.9550 0.9550 0.9570
6.361000 0.9580 0.9580 0.9580 0.9620 0.9620
6.395030 0.9580 0.9530 0.9520 0.9520 0.9520
6.429000 0.9570 0.9570 0.9580 0.9580 0.9600
6.463030 0.9600 0.9600 0.9580 0.9520 0.9520
6.497000 0.9520 0.9520 0.9520 0.9550 0.9530
6.531030 0.9530 0.9530 0.9530 0.9530 0.9520
6.565000 0.9520 0.9480 0.9450 0.9410 0.9400
6.599030 0.9400 0.9410 0.9410 0.9400 0.9380
6.633000 0.9380 0.9380 0.9410 0.9410 0.9400
6.667030 0.9400 0.9380 0.9380 0.9380 0.9380
6.701000 0.9360 0.9330 0.9290 0.9260 0.9260
6.735030 0.9260 0.9240 0.9230 0.9210 0.9190
6.769000 0.9120 0.9050 0.8900 0.8780 0.8660
6.803030 0.8560 0.8470 0.8460 0.8410 0.8390
6.837000 0.8390 0.8410 0.8410 0.8370 0.8340
6.871030 0.8300 0.8290 0.8290 0.8290 0.8290
6.905000 0.8290 0.8250 0.8220 0.8200 0.8200
6.939030 0.8200 0.8200 0.8200 0.8200 0.8200
6.973000 0.8200 0.8200 0.8220 0.8270 0.8320
7.007030 0.8370 0.8460 0.8540 0.8580 0.8580
7.041000 0.8540 0.8520 0.8520 0.8510 0.8490
7.075030 0.8470 0.8470 0.8470 0.8470 0.8470
7.109000 0.8470 0.8470 0.8440 0.8420 0.8410
7.143030 0.8350 0.8300 0.8250 0.8200 0.8130
7.177000 0.8050 0.7980 0.7890 0.7810 0.7720
7.211030 0.7570 0.7530 0.7360 0.7290 0.7190
7.245000 0.7050 0.6970 0.6800 0.6680 0.6560
7.279030 0.6510 0.6470 0.6470 0.6510 0.6660
7.313000 0.6920 0.7020 0.7120 0.7240 0.7360
7.347030 0.7480 0.7550 0.7620 0.7740 0.7810
7.381000 0.7880 0.7980 0.8080 0.8200 0.8290
7.415030 0.8350 0.8460 0.8520 0.8540 0.8590
7.449000 0.8640 0.8700 0.8710 0.8750 0.8780
7.483030 0.8800 0.8800 0.8830 0.8880 0.8970
7.517000 0.9000 0.9000 0.9020 0.9020 0.9000
7.551030 0.9000 0.9000 0.9000 0.9000 0.9000
7.585000 0.9000 0.9000 0.9020 0.9020 0.9040
7.619030 0.9040 0.9020 0.9020 0.9020 0.9000
7.653000 0.8990 0.8990 0.8920 0.8850 0.8750
7.687030 0.8640 0.8560 0.8440 0.8300 0.8200
7.721000 0.8130 0.8080 0.8000 0.8000 0.8100
7.755030 0.8150 0.8250 0.8370 0.8540 0.8680
7.789000 0.8700 0.8700 0.8700 0.8700 0.8700
7.823030 0.8700 0.8700 0.8700 0.8680 0.8680
7.857000 0.8660 0.8660 0.8640 0.8630 0.8640
7.891030 0.8660 0.8680 0.8700 0.8730 0.8730
7.925000 0.8680 0.8610 0.8590 0.8590 0.8590
7.959030 0.8590 0.8590 0.8580 0.8590 0.8580
7.993000 0.8540 0.8510 0.8510 0.8470 0.8460
8.027030 0.8420 0.8420 0.8410 0.8350 0.8270
8.061000 0.8170 0.8100 0.8100 0.8030 0.7840
8.095030 0.7600 0.7210 0.7170 0.7190 0.7280
8.129000 0.7400 0.7470 0.7530 0.7570 0.7550
8.163030 0.7530 0.7530 0.7530 0.7520 0.7500
8.197000 0.7500 0.7380 0.7360 0.7260 0.7160
8.231030 0.7090 0.7040 0.7000 0.6940 0.6900
8.265000 0.6800 0.6730 0.6700 0.6610 0.6470
8.299030 0.6390 0.6200 0.6010 0.5810 0.5580
8.333000 0.5330 0.5050 0.4290 0.3790 0.3210
8.367030 0.2760 0.1740 0.1350 0.1170 0.1040
8.401000 0.0700 0.0630 0.0630 0.1280 0.2250
8.435030 0.2680 0.3110 0.3650 0.4110 0.4420
8.469000 0.4580 0.4750 0.4880 0.4990 0.4990
8.503030 0.4990 0.4880 0.4750 0.4580 0.4410
8.537000 0.4230 0.4010 0.3760 0.3570 0.3120
8.571030 0.2850 0.2540 0.1910 0.1620 0.1350
8.605000 0.1050 0.0830 0.0630 0.0470 0.0390
8.639030 0.0320 0.0300 0.0290 0.0290 0.0290
8.673000 0.0270 0.0270 0.0250 0.0250 0.0230
8.707030 0.0230 0.0230 0.0250 0.0270 0.0290
8.741000 0.0290 0.0300 0.0320 0.0350 0.0410
8.775030 0.0470 0.0580 0.0900 0.1210 0.1310
8.810000 0.1740 0.2150 0.2350 0.2540 0.2900
8.844030 0.3240 0.3550 0.3810 0.4050 0.4220
8.878000 0.4340 0.4410 0.4460 0.4490 0.4460
8.912030 0.4370 0.4250 0.4060 0.3840 0.3570
8.946000 0.3240 0.2760 0.1930 0.1580 0.1280
8.980030 0.1070 0.0700 0.0520 0.0510 0.0510
9.014000 0.0520 0.0680 0.1160 0.1760 0.2440
9.048030 0.2710 0.2970 0.3650 0.4150 0.4510
9.082000 0.4880 0.4970 0.5050 0.5500 0.5570
9.116030 0.5760 0.5940 0.6050 0.6150 0.6230
9.150000 0.6350 0.6460 0.6510 0.6580 0.6590
9.184030 0.6660 0.6710 0.6750 0.6780 0.6780
9.218000 0.6780 0.6800 0.6820 0.6830 0.6850
9.252030 0.6850 0.6850 0.6850 0.6830 0.6820
9.286000 0.6800 0.6750 0.6730 0.6730 0.6710
9.320030 0.6700 0.6630 0.6610 0.6610 0.6630
9.354000 0.6680 0.6750 0.6800 0.6830 0.6880
9.388030 0.6970 0.7070 0.7140 0.7190 0.7230
9.422000 0.7290 0.7330 0.7380 0.7430 0.7470
9.456030 0.7500 0.7580 0.7600 0.7600 0.7620
9.490000 0.7620 0.7620 0.7600 0.7600 0.7600
9.524030 0.7600 0.7600 0.7600 0.7600 0.7600
9.558000 0.7600 0.7620 0.7620 0.7620 0.7640
9.592030 0.7650 0.7650 0.7670 0.7670 0.7670
9.626000 0.7670 0.7690 0.7700 0.7740 0.7760
9.660030 0.7760 0.7760 0.7770 0.7770 0.7790
9.694000 0.7810 0.7820 0.7860 0.7890 0.7880
9.728030 0.7880 0.7880 0.7880 0.7880 0.7880
9.762000 0.7890 0.7960 0.8000 0.8000 0.8010
9.796030 0.8030 0.8060 0.8110 0.8130 0.8170
9.830000 0.8150 0.8170 0.8180 0.8200 0.8250
9.864030 0.8270 0.8290 0.8290 0.8300 0.8340
9.898000 0.8390 0.8420 0.8420 0.8440 0.8420
9.932030 0.8440 0.8490 0.8490 0.8490 0.8520
9.966000 0.8580 0.8610 0.8630 0.8630 0.8660
10.000030 0.8660 0.8680 0.8680 0.8700 0.8710
10.034000 0.8730 0.8750 0.8780 0.8780 0.8800
10.068030 0.8830 0.8850 0.8900 0.8940 0.8950
10.102000 0.8950 0.8940 0.8940 0.8940 0.8940
10.136030 0.8950 0.8950 0.8950 0.8950 0.8950
10.170000 0.8950 0.8970 0.8990 0.8990 0.8990
10.204030 0.8990 0.8990 0.8990 0.9000 0.9000
10.238000 0.8990 0.8990 0.8990 0.8990 0.8990
10.272030 0.8990 0.8990 0.8990 0.8990 0.8990
10.306000 0.8990 0.8990 0.8990 0.8990 0.8990
10.340030 0.8990 0.8990 0.8990 0.8990 0.9000
10.374000 0.9000 0.9020 0.9000 0.9000 0.9020
10.408030 0.9020 0.9040 0.9040 0.9040 0.9050
10.442000 0.9050 0.9070 0.9090 0.9110 0.9120
10.476030 0.9140 0.9170 0.9170 0.9160 0.9170
10.510000 0.9170 0.9190 0.9230 0.9230 0.9240
10.544030 0.9260 0.9260 0.9240 0.9240 0.9240
10.578000 0.9240 0.9240 0.9230 0.9230 0.9230
10.612030 0.9230 0.9230 0.9160 0.9110 0.9090
10.646000 0.9050 0.9050 0.9040 0.9040 0.9020
10.680030 0.9020 0.9000 0.9020 0.9020 0.9020
10.714000 0.9000 0.8990 0.8970 0.8990 0.8990
10.748030 0.8990 0.8990 0.9000 0.9020 0.9000
10.782000 0.9000 0.9020 0.9020 0.9040 0.9040
10.816030 0.9020 0.9020 0.9020 0.9020 0.9040
10.850000 0.9040 0.9040 0.9040 0.9040 0.9040
10.884030 0.9040 0.9040 0.9040 0.9040 0.9040
10.918000 0.9040 0.9020 0.9000 0.9000 0.9000
10.952030 0.9000 0.9000 0.9000 0.9000 0.9000
10.986000 0.9000 0.9000 0.9000 0.9000 0.8990
11.020030 0.9000 0.9000 0.8990 0.8950 0.8940
11.054000 0.8940 0.8940 0.8940 0.8940 0.8940
11.088030 0.8940 0.8940 0.8950 0.8990 0.8990
11.122000 0.8990 0.8990 0.9000 0.9000 0.9000
11.156030 0.9020 0.9020 0.9040 0.9050 0.9050
11.190000 0.9070 0.9070 0.9110 0.9110 0.9090
11.224030 0.9090 0.9070 0.9090 0.9110 0.9120
11.259000 0.9140 0.9120 0.9140 0.9140 0.9140
11.293030 0.9160 0.9170 0.9170 0.9170 0.9170
11.327000 0.9170 0.9170 0.9170 0.9170 0.9170
11.361030 0.9170 0.9170 0.9190 0.9190 0.9190
11.395000 0.9190 0.9190 0.9190 0.9190 0.9190
11.429030 0.9190 0.9190 0.9170 0.9170 0.9170
11.463000 0.9170 0.9170 0.9190 0.9190 0.9190
11.497030 0.9190 0.9190 0.9210 0.9210 0.9190
11.531000 0.9190 0.9210 0.9210 0.9210 0.9210
11.565030 0.9210 0.9190 0.9190 0.9170 0.9170
11.599000 0.9210 0.9210 0.9210 0.9190 0.9170
11.633030 0.9160 0.9140 0.9190 0.9190 0.9190
11.667000 0.9190 0.9190 0.9160 0.9140 0.9120
11.701030 0.9110 0.9110 0.9110 0.9110 0.9110
11.735000 0.9090 0.9090 0.9070 0.9070 0.9090
11.769030 0.9090 0.9110 0.9090 0.9090 0.9090
11.803000 0.9090 0.9110 0.9110 0.9070 0.9070
11.837030 0.9070 0.9090 0.9090 0.9090 0.9090
11.871000 0.9090 0.9090 0.9090 0.9090 0.9090
11.905030 0.9090 0.9090 0.9090 0.9090 0.9050
11.939000 0.9040 0.9040 0.9040 0.9040 0.9040
11.973030 0.9040 0.9040 0.9020 0.9020 0.9000
12.007000 0.9000 0.9000 0.8990 0.8990 0.8970
12.041030 0.8950 0.8940 0.8920 0.8920 0.8900
12.075000 0.8900 0.8900 0.8900 0.8880 0.8880
12.109030 0.8880 0.8820 0.8800 0.8760 0.8680
12.143000 0.8590 0.8580 0.8560 0.8540 0.8510
12.177030 0.8470 0.8420 0.8350 0.8270 0.8220
12.211000 0.8150 0.8110 0.8080 0.8050 0.8010
12.245030 0.7980 0.7930 0.7930 0.7860 0.7760
12.279000 0.7640 0.7530 0.7360 0.7260 0.7110
12.313030 0.6900 0.6710 0.6510 0.6440 0.6370
12.347000 0.6320 0.6320 0.6340 0.6410 0.6520
12.381030 0.6710 0.6900 0.7110 0.7280 0.7430
12.415000 0.7530 0.7620 0.7760 0.7810 0.7880
12.449030 0.7980 0.8060 0.8170 0.8200 0.8220
12.483000 0.8230 0.8320 0.8370 0.8410 0.8420
12.517030 0.8440 0.8460 0.8490 0.8490 0.8490
12.551000 0.8490 0.8490 0.8510 0.8510 0.8510
12.585030 0.8510 0.8510 0.8510 0.8510 0.8510
12.619000 0.8510 0.8490 0.8490 0.8470 0.8470
12.653030 0.8460 0.8440 0.8440 0.8410 0.8390
12.687000 0.8350 0.8340 0.8320 0.8300 0.8270
12.721030 0.8230 0.8220 0.8180 0.8180 0.8170
12.755000 0.8150 0.8130 0.8110 0.8100 0.8100
12.789030 0.8080 0.8060 0.8010 0.7930 0.7860
12.823000 0.7840 0.7820 0.7820 0.7790 0.7740
12.857030 0.7670 0.7580 0.7520 0.7400 0.7380
12.891000 0.7330 0.7290 0.7210 0.7160 0.7070
12.925030 0.7000 0.6940 0.6870 0.6780 0.6680
12.959000 0.6590 0.6490 0.6370 0.6250 0.6110
12.993030 0.5980 0.5820 0.5670 0.5500 0.5310
13.027000 0.5120 0.4700 0.4460 0.4200 0.4010
13.061030 0.3770 0.3480 0.3190 0.2900 0.2610
13.095000 0.2150 0.2000 0.1770 0.1520 0.1350
13.129030 0.1210 0.1090 0.1000 0.0920 0.0830
13.163000 0.0780 0.0760 0.0780 0.0800 0.0830
13.197030 0.0970 0.1110 0.1280 0.1470 0.1670
13.231000 0.1890 0.2150 0.2420 0.2580 0.2730
13.265030 0.3020 0.3350 0.3650 0.4000 0.4220
13.299000 0.4520 0.4800 0.4900 0.5000 0.5230
13.333030 0.5410 0.5650 0.5760 0.5860 0.5960
13.367000 0.6080 0.6200 0.6340 0.6460 0.6580
13.401030 0.6710 0.6820 0.6850 0.6950 0.7050
13.435000 0.7120 0.7140 0.7190 0.7210 0.7240
13.469030 0.7290 0.7310 0.7410 0.7450 0.7470
13.503000 0.7480 0.7500 0.7520 0.7520 0.7530
13.537030 0.7580 0.7600 0.7620 0.7640 0.7640
13.571000 0.7650 0.7650 0.7650 0.7650 0.7670
13.605030 0.7670 0.7650 0.7650 0.7650 0.7650
13.639000 0.7640 0.7640 0.7600 0.7580 0.7580
13.673030 0.7570 0.7550 0.7500 0.7430 0.7410
13.707000 0.7400 0.7400 0.7380 0.7310 0.7280
13.741030 0.7260 0.7240 0.7230 0.7210 0.7210
13.776000 0.7190 0.7190 0.7160 0.7120 0.7090
13.810030 0.7020 0.7000 0.6990 0.6940 0.6920
13.844000 0.6880 0.6830 0.6760 0.6710 0.6640
13.878030 0.6580 0.6520 0.6460 0.6370 0.6300
13.912000 0.6220 0.6100 0.6030 0.6000 0.5960
13.946030 0.5910 0.5910 0.5880 0.5880 0.5880
13.980000 0.5890 0.5910 0.6000 0.6080 0.6250
14.014030 0.6320 0.6440 0.6540 0.6640 0.6730
14.048000 0.6760 0.6820 0.6940 0.7040 0.7050
14.082030 0.7140 0.7210 0.7290 0.7350 0.7400
14.116000 0.7400 0.7410 0.7430 0.7450 0.7480
14.150030 0.7500 0.7500 0.7530 0.7550 0.7600
14.184000 0.7620 0.7640 0.7640 0.7670 0.7690
14.218030 0.7690 0.7740 0.7770 0.7770 0.7790
14.252000 0.7790 0.7810 0.7840 0.7880 0.7890
14.286030 0.7930 0.7930 0.7940 0.8000 0.8010
14.320000 0.8030 0.8050 0.8080 0.8100 0.8110
14.354030 0.8130 0.8180 0.8200 0.8220 0.8250
14.388000 0.8270 0.8290 0.8300 0.8320 0.8340
14.422030 0.8350 0.8420 0.8420 0.8440 0.8440
14.456000 0.8470 0.8470 0.8490 0.8490 0.8510
14.490030 0.8510 0.8540 0.8560 0.8560 0.8580
14.524000 0.8580 0.8610 0.8610 0.8630 0.8630
14.558030 0.8630 0.8630 0.8630 0.8630 0.8630
14.592000 0.8630 0.8610 0.8630 0.8630 0.8630
14.626030 0.8610 0.8610 0.8590 0.8580 0.8580
14.660000 0.8580 0.8560 0.8560 0.8540 0.8540
14.694030 0.8540 0.8540 0.8520 0.8510 0.8510
14.728000 0.8510 0.8510 0.8510 0.8510 0.8510
14.762030 0.8510 0.8510 0.8510 0.8510 0.8510
14.796000 0.8510 0.8490 0.8490 0.8490 0.8490
14.830030 0.8470 0.8460 0.8420 0.8420 0.8420
14.864000 0.8420 0.8420 0.8420 0.8420 0.8420
14.898030 0.8420 0.8410 0.8410 0.8370 0.8340
14.932000 0.8320 0.8290 0.8290 0.8290 0.8290
14.966030 0.8290 0.8290 0.8250 0.8230 0.8220
15.000000 0.8180 0.8150 0.8130 0.8130 0.8100
15.034030 0.8080 0.8050 0.8010 0.8010 0.8000
15.068000 0.8000 0.7980 0.7910 0.7880 0.7880
15.102030 0.7860 0.7820 0.7810 0.7790 0.7790
15.136000 0.7760 0.7740 0.7740 0.7720 0.7690
15.170030 0.7690 0.7670 0.7600 0.7580 0.7550
15.204000 0.7520 0.7400 0.7380 0.7380 0.7380
15.238030 0.7380 0.7360 0.7350 0.7310 0.7310
15.272000 0.7310 0.7290 0.7290 0.7260 0.7240
15.306030 0.7240 0.7230 0.7190 0.7170 0.7140
15.340000 0.7110 0.7070 0.7020 0.7020 0.7000
15.374030 0.6990 0.6990 0.6970 0.6950 0.6940
15.408000 0.6920 0.6920 0.6870 0.6820 0.6780
15.442030 0.6750 0.6680 0.6630 0.6560 0.6470
15.476000 0.6440 0.6410 0.6410 0.6390 0.6350
15.510030 0.6290 0.6230 0.6180 0.6130 0.6100
15.544000 0.6010 0.5940 0.5820 0.5740 0.5670
15.578030 0.5620 0.5580 0.5530 0.5480 0.5410
15.612000 0.5380 0.5310 0.5280 0.5240 0.5240
15.646030 0.5230 0.5190 0.5140 0.5120 0.5120
15.680000 0.5120 0.5120 0.5120 0.5120 0.5140
15.714030 0.5140 0.5160 0.5170 0.5170 0.5190
15.748000 0.5210 0.5230 0.5260 0.5310 0.5330
15.782030 0.5400 0.5470 0.5480 0.5530 0.5600
15.816000 0.5640 0.5670 0.5670 0.5690 0.5700
15.850030 0.5740 0.5790 0.5810 0.5810 0.5810
15.884000 0.5820 0.5880 0.5910 0.5940 0.5980
15.918030 0.6000 0.6010 0.6010 0.6030 0.6050
15.952000 0.6100 0.6110 0.6150
##END=
