##TITLE=Cyclopropyl isothiocyanate
##JCAMP-DX=4.24
##DATA TYPE=INFRARED SPECTRUM
##ORIGIN=EPA-IR VAPOR PHASE LIBRARY
##OWNER=SRD/NIST
Collection (C) 2018 copyright by the U.S. Secretary of Commerce
on behalf of the United States of America. All rights reserved.
##CAS REGISTRY NO=56601-42-4
##MOLFORM=C 4 H 5 N S
##$NIST SOURCE=MSDC-IR
##STATE=gas
##XUNITS=1/CM
##YUNITS=ABSORBANCE
##XFACTOR=1.
##YFACTOR=0.001
##DELTAX=1.92898
##FIRSTX=549.8
##LASTX=4000.7
##FIRSTY=21.375
##MAXX=4000.7
##MINX=549.759
##MAXY=0.439415
##MINY=0
##NPOINTS=1790
##XYDATA=(X++(Y..Y))
549.759 21.375 19.675 18.175 16.415 14.565 13.285 12.445 11.355 10.165 9.385
569.049 8.575 7.535 7.065 6.775 6.085 5.065 4.395 4.255 4.085 3.785
588.339 3.415 3.425 3.565 3.325 2.945 3.005 3.115 2.945 2.845 2.855
607.628 2.945 2.905 2.715 2.465 2.375 2.415 2.285 2.225 2.335 2.325
626.918 2.365 2.425 2.525 2.555 2.605 2.595 2.335 2.235 2.035 1.935
646.208 1.755 1.377 1.2804 1.1999 1.0348 1.062 1.0361 0.8481 0.7244 0.7566
665.498 0.65672 0.5335 0.5367 0.5278 0.7612 0.8893 0.8156 0.7499 0.7348 0.9444
684.787 0.9685 1.0061 1.226 1.1798 1.1565 1.3712 1.35 1.3293 1.3908 1.371
704.077 1.4398 1.4742 1.497 1.5982 1.4888 1.2609 1.1701 1.2006 1.2938 1.3061
723.367 1.3179 1.3745 1.3256 1.2908 1.1735 1.0953 1.2576 1.4707 1.3975 1.1824
742.657 1.0035 0.951 1.2306 1.2465 1.2469 1.3146 1.3533 1.5593 1.685 1.625
761.947 1.725 2.055 2.375 2.575 2.755 3.095 3.255 3.545 3.955 4.035
781.236 4.375 4.665 4.655 4.985 5.355 5.425 5.435 5.665 5.885 5.905
800.526 6.075 6.325 6.465 6.595 6.765 7.015 7.095 6.875 6.665 6.555
819.816 6.425 6.355 6.415 6.265 5.985 5.925 5.715 5.645 5.805 5.725
839.106 5.655 5.625 5.635 5.745 5.825 5.725 5.685 5.875 5.685 5.645
858.395 5.835 5.805 5.655 5.625 5.595 5.155 4.805 4.675 4.485 4.215
877.685 4.025 3.965 3.925 3.865 3.845 3.945 3.915 3.885 4.125 4.485
896.975 4.665 4.795 5.125 5.315 5.405 5.625 5.715 5.715 5.875 5.965
916.265 6.055 6.285 6.295 6.075 6.035 6.255 6.265 6.065 5.955 5.895
935.555 5.865 5.815 5.565 5.305 5.215 5.125 5.155 5.265 5.355 5.305
954.844 5.105 4.935 5.085 5.295 5.375 5.595 5.925 6.255 6.635 6.855
974.134 6.975 7.425 7.905 8.185 8.485 8.765 9.165 9.705 10.225 10.925
993.424 12.005 13.415 15.115 17.305 19.645 22.045 24.605 26.725 28.325 29.485
1012.714 30.005 30.205 30.135 30.445 30.845 30.515 28.905 25.955 23.235 20.995
1032.003 18.825 16.925 15.235 14.025 13.045 12.235 11.795 11.095 10.505 10.315
1051.293 10.115 9.875 9.365 8.575 7.915 7.665 7.535 6.895 6.205 5.865
1070.583 5.535 5.245 4.895 4.645 4.365 3.855 3.745 3.505 2.935 2.765
1089.873 2.885 2.745 2.485 2.355 2.275 2.325 2.485 2.595 2.635 2.595
1109.163 2.585 2.825 2.765 2.735 2.855 2.755 3.105 3.475 3.235 3.175
1128.452 3.435 3.445 3.135 3.105 3.295 3.215 3.435 3.755 3.845 4.045
1147.742 4.285 4.685 4.845 5.055 5.575 5.635 5.785 6.095 6.125 6.135
1167.032 6.075 6.045 6.015 5.795 5.535 5.345 5.355 5.395 5.405 5.225
1186.322 5.135 4.935 4.775 4.865 5.035 5.125 5.195 5.625 5.915 6.385
1205.611 6.945 6.915 6.575 6.475 6.135 5.985 6.005 5.705 5.345 4.925
1224.901 4.195 3.715 3.655 3.275 2.795 2.725 2.875 2.855 2.865 2.815
1244.191 2.925 3.075 3.145 3.325 3.375 3.285 3.315 3.515 3.505 3.345
1263.481 3.395 3.305 3.155 3.135 3.025 2.965 2.905 2.795 2.705 2.645
1282.771 2.585 2.595 2.685 2.655 2.595 2.695 2.805 2.875 3.095 3.295
1302.060 3.465 3.605 3.575 3.635 3.835 4.035 4.205 4.335 4.605 4.985
1321.350 5.345 5.815 6.495 7.405 8.625 10.405 12.895 16.075 20.275 25.855
1340.640 33.105 42.075 52.155 61.905 69.375 73.015 72.455 69.305 66.295 65.185
1359.930 65.615 65.575 62.315 54.535 43.855 32.705 22.975 15.635 10.625 7.525
1379.219 5.795 4.915 4.485 4.345 4.235 4.165 4.215 4.295 4.405 4.565
1398.509 4.735 4.855 4.965 5.045 5.095 5.205 5.355 5.495 5.615 5.745
1417.799 5.915 6.045 6.135 6.305 6.455 6.625 6.825 7.095 7.395 7.655
1437.089 8.035 8.565 9.175 9.895 10.705 11.445 11.905 12.155 12.045 11.545
1456.378 11.005 10.685 10.505 10.205 9.695 8.745 7.535 6.305 5.195 4.365
1475.668 3.815 3.445 3.165 2.965 2.825 2.735 2.625 2.535 2.415 2.335
1494.958 2.265 2.145 2.125 2.075 1.995 1.895 1.855 1.825 1.705 1.635
1514.248 1.615 1.601 1.5455 1.4865 1.4525 1.4555 1.4805 1.4226 1.3847 1.4339
1533.538 1.4455 1.5128 1.5571 1.5276 1.4691 1.4324 1.4709 1.4239 1.4099 1.4009
1552.827 1.3725 1.397 1.3809 1.3272 1.2622 1.2705 1.3003 1.2982 1.2987 1.2449
1572.117 1.1877 1.1669 1.204 1.2155 1.1829 1.1465 1.0876 1.1189 1.1354 1.0357
1591.407 0.9266 0.8887 0.9361 0.9186 0.9058 0.9381 0.8965 0.891 0.9282 0.9117
1610.697 0.9716 1.0953 1.1558 1.1025 1.1038 1.1471 1.1294 1.1479 1.1043 1.112
1629.986 1.1681 1.2193 1.1905 1.169 1.2553 1.2719 1.2361 1.1859 1.1734 1.1621
1649.276 1.1486 1.1783 1.2007 1.2477 1.3347 1.3311 1.3247 1.3687 1.4138 1.4754
1668.566 1.4546 1.3667 1.4393 1.5525 1.5773 1.655 1.685 1.745 1.885 1.945
1687.856 1.985 2.095 2.145 2.225 2.345 2.375 2.345 2.375 2.385 2.415
1707.146 2.435 2.365 2.345 2.345 2.265 2.155 2.145 2.135 2.085 2.065
1726.435 2.005 1.905 1.885 1.865 1.815 1.795 1.895 1.925 1.835 1.825
1745.725 1.825 1.795 1.815 1.825 1.845 1.785 1.735 1.785 1.775 1.685
1765.015 1.665 1.665 1.635 1.625 1.645 1.665 1.705 1.725 1.735 1.805
1784.305 1.825 1.905 2.025 2.065 2.085 2.175 2.315 2.495 2.655 2.765
1803.594 2.905 3.025 3.095 3.185 3.245 3.325 3.405 3.465 3.585 3.575
1822.884 3.585 3.685 3.705 3.655 3.605 3.595 3.595 3.635 3.675 3.725
1842.174 3.805 3.855 3.925 4.035 4.155 4.305 4.455 4.625 4.845 4.995
1861.464 5.185 5.455 5.685 5.925 6.175 6.435 6.715 6.965 7.205 7.425
1880.754 7.695 7.975 8.245 8.515 8.835 9.145 9.385 9.605 9.815 10.025
1900.043 10.295 10.625 10.985 11.325 11.655 11.905 12.265 12.725 13.195 13.735
1919.333 14.355 15.005 15.665 16.405 17.235 18.145 19.115 20.085 21.025 22.055
1938.623 23.085 24.175 25.365 26.595 27.945 29.365 30.805 32.365 33.995 35.725
1957.913 37.625 39.695 41.925 44.325 46.965 49.775 52.685 55.875 59.375 63.175
1977.202 67.275 71.605 76.265 81.165 86.185 91.435 96.815 102.235 107.805 113.335
1996.492 118.815 124.335 129.865 135.555 141.355 147.135 152.955 158.795 164.615 170.595
2015.782 176.695 182.835 188.975 195.095 201.475 208.425 215.985 224.295 233.305 242.885
2035.072 253.015 263.455 274.265 285.685 297.695 310.195 322.865 335.315 347.085 358.205
2054.362 368.825 378.865 388.915 399.025 408.815 418.015 426.045 432.425 436.875 439.415
2073.651 438.765 432.915 421.405 406.225 388.925 370.185 350.225 328.185 304.285 279.205
2092.941 254.245 230.555 208.635 188.965 171.705 156.835 144.065 133.115 123.765 115.905
2112.231 109.355 103.825 99.305 95.735 92.885 90.615 88.835 87.615 86.895 86.485
2131.521 86.485 86.805 87.315 88.045 88.745 89.085 88.945 88.405 87.495 86.175
2150.810 84.765 83.165 81.355 79.495 77.655 75.835 74.125 72.715 71.505 70.425
2170.100 69.565 68.825 68.025 67.325 66.605 65.605 64.305 62.655 60.535 58.015
2189.390 55.435 52.885 50.195 47.445 44.305 40.775 37.195 34.005 31.475 29.555
2208.680 28.295 27.635 27.375 27.415 27.685 27.955 28.095 27.965 27.475 26.675
2227.970 25.745 24.765 23.575 22.345 21.115 19.655 18.065 16.415 14.755 13.145
2247.259 11.665 10.465 9.605 8.945 8.355 7.935 7.625 7.275 7.005 6.865
2266.549 6.695 6.465 6.325 6.225 6.065 5.865 5.655 5.525 5.415 5.245
2285.839 5.055 4.935 4.855 4.685 4.475 4.285 4.105 3.915 3.755 3.655
2305.129 3.535 3.405 3.285 3.185 3.065 2.945 2.875 2.795 2.755 2.705
2324.418 2.645 2.645 2.665 2.605 2.475 2.435 2.455 2.435 2.325 2.305
2343.708 2.365 2.335 2.335 2.455 2.605 2.805 2.925 2.955 3.075 3.275
2362.998 3.455 3.585 3.675 3.745 3.855 3.935 3.985 4.055 4.015 3.845
2382.288 3.735 3.575 3.325 3.105 3.015 2.965 2.825 2.705 2.575 2.545
2401.578 2.645 2.605 2.605 2.665 2.695 2.715 2.715 2.805 2.945 2.955
2420.867 2.925 2.825 2.745 2.775 2.715 2.655 2.545 2.405 2.335 2.195
2440.157 2.115 2.045 1.965 1.895 1.845 1.805 1.705 1.715 1.815 1.805
2459.447 1.805 1.775 1.755 1.865 1.895 1.885 1.895 1.905 1.885 1.875
2478.737 1.915 1.945 1.935 1.925 1.875 1.845 1.825 1.805 1.745 1.735
2498.026 1.745 1.745 1.745 1.735 1.795 1.785 1.785 1.835 1.845 1.825
2517.316 1.855 1.885 1.935 1.965 1.935 1.975 1.955 1.885 1.835 1.815
2536.606 1.825 1.905 1.855 1.815 1.865 1.805 1.715 1.745 1.805 1.785
2555.896 1.805 1.835 1.815 1.765 1.745 1.745 1.765 1.765 1.745 1.825
2575.186 1.895 1.915 1.915 1.925 1.925 1.915 1.905 1.865 1.755 1.695
2594.475 1.685 1.5887 1.5166 1.5253 1.4845 1.4127 1.4051 1.4175 1.2896 1.1599
2613.765 1.1686 1.2101 1.2293 1.2308 1.2487 1.2317 1.2493 1.3504 1.3763 1.41
2633.055 1.4862 1.5403 1.5179 1.4802 1.556 1.655 1.795 1.795 1.825 1.915
2652.345 1.915 2.025 2.075 2.095 2.125 2.215 2.385 2.575 2.705 2.735
2671.634 2.805 2.915 3.025 3.225 3.415 3.585 3.785 3.935 4.105 4.465
2690.924 4.885 5.165 5.495 5.875 6.375 6.965 7.385 7.845 8.445 8.975
2710.214 9.455 9.955 10.415 10.725 10.895 11.025 10.895 10.655 10.285 9.765
2729.504 9.385 8.925 8.365 7.675 6.865 6.235 5.635 5.075 4.595 4.085
2748.794 3.615 3.235 2.965 2.715 2.455 2.255 2.035 1.945 1.825 1.675
2768.083 1.625 1.571 1.5263 1.4432 1.3473 1.3554 1.4303 1.3155 1.1959 1.1503
2787.373 1.1675 1.1378 1.061 1.0039 0.9767 1.0832 1.1824 1.2442 1.28 1.2916
2806.663 1.2786 1.2706 1.3424 1.3411 1.3541 1.4008 1.4095 1.4101 1.4497 1.5665
2825.953 1.5422 1.4681 1.5093 1.5629 1.5381 1.5926 1.4854 1.546 1.735 1.605
2845.242 1.55 1.615 1.5525 1.4054 1.5149 1.5837 1.5094 1.4961 1.4724 1.5001
2864.532 1.4557 1.4489 1.4751 1.3968 1.3918 1.419 1.3835 1.394 1.4109 1.298
2883.822 1.1446 1.1681 1.3238 1.4008 1.4149 1.3552 1.3631 1.5015 1.5616 1.4437
2903.112 1.3283 1.2752 1.267 1.2486 1.2497 1.3205 1.2818 1.2764 1.3188 1.2416
2922.401 1.2112 1.2178 1.3138 1.3773 1.1917 1.2118 1.3099 1.3807 1.4092 1.3487
2941.691 1.3499 1.3693 1.4555 1.4815 1.501 1.615 1.795 1.865 1.785 1.725
2960.981 1.705 1.735 1.915 1.925 1.895 1.985 2.005 2.135 2.355 2.455
2980.271 2.515 2.725 2.975 3.145 3.245 3.455 3.845 4.105 4.405 4.725
2999.561 4.955 5.255 5.525 5.875 6.325 6.765 7.265 7.885 8.565 9.295
3018.850 9.975 10.525 11.075 11.595 11.935 12.205 12.785 13.495 14.175 14.805
3038.140 15.195 15.565 15.895 15.925 15.775 15.385 14.925 14.535 14.315 14.215
3057.430 13.705 12.785 11.675 10.385 9.305 8.525 7.875 7.315 6.875 6.455
3076.720 6.065 5.795 5.645 5.685 5.815 6.055 6.575 7.365 8.495 9.805
3096.009 11.075 12.055 12.495 12.315 11.785 11.225 10.805 10.955 11.055 10.395
3115.299 9.055 7.435 5.885 4.525 3.655 3.005 2.435 2.215 2.035 1.735
3134.589 1.5051 1.4212 1.3705 1.4283 1.4412 1.3661 1.2558 1.1399 1.1236 1.1284
3153.879 1.0392 1.0157 1.1 1.073 1.0271 1.0518 1.1256 0.992 0.9533 1.0491
3173.169 0.8753 0.7974 0.8139 0.64169 0.5153 0.5921 0.63399 0.5192 0.487 0.439
3192.458 0.439 0.5672 0.67882 0.498 0.32 0.365 0.408 0.5782 0.5154 0.402
3211.748 0.455 0.447 0.452 0.308 0.349 0.4 0.336 0.421 0.429 0.367
3231.038 0.278 0.219 0.27 0.375 0.443 0.46 0.364 0.367 0.401 0.461
3250.328 0.5392 0.502 0.39 0.32 0.347 0.387 0.304 0.236 0.266 0.265
3269.617 0.361 0.356 0.306 0.338 0.333 0.194 0 0.097 0.286 0.29
3288.907 0.268 0.372 0.447 0.424 0.505 0.449 0.285 0.252 0.291 0.381
3308.197 0.405 0.254 0.271 0.407 0.351 0.179 0.115 0.251 0.499 0.498
3327.487 0.388 0.291 0.207 0.26 0.297 0.354 0.46 0.5065 0.412 0.456
3346.777 0.446 0.384 0.467 0.397 0.385 0.5086 0.5215 0.5105 0.5895 0.5509
3366.066 0.447 0.412 0.411 0.502 0.462 0.326 0.318 0.425 0.62403 0.501
3385.356 0.347 0.469 0.5521 0.5084 0.5053 0.5564 0.474 0.5174 0.49 0.495
3404.646 0.5397 0.434 0.417 0.316 0.279 0.313 0.359 0.42 0.266 0.356
3423.936 0.433 0.33 0.43 0.5067 0.414 0.407 0.496 0.39 0.375 0.488
3443.225 0.379 0.333 0.433 0.479 0.5621 0.5628 0.5748 0.6566 0.62101 0.5106
3462.515 0.493 0.5202 0.5503 0.62041 0.67722 0.67214 0.5889 0.61552 0.5084 0.386
3481.805 0.59937 0.705 0.59963 0.5451 0.626 0.7376 0.62134 0.471 0.401 0.5294
3501.095 0.68696 0.5757 0.414 0.31 0.387 0.43 0.366 0.5275 0.59503 0.5489
3520.385 0.451 0.252 0.233 0.426 0.5614 0.63756 0.5739 0.46 0.461 0.47
3539.674 0.62942 0.67627 0.479 0.402 0.462 0.436 0.418 0.464 0.437 0.411
3558.964 0.398 0.49 0.578 0.59539 0.68065 0.5161 0.332 0.403 0.5712 0.482
3578.254 0.364 0.409 0.441 0.358 0.329 0.464 0.473 0.467 0.448 0.497
3597.544 0.5256 0.5116 0.5342 0.5117 0.61774 0.7118 0.67278 0.62244 0.5822 0.502
3616.833 0.5246 0.70143 0.5446 0.438 0.499 0.462 0.439 0.381 0.329 0.207
3636.123 0.316 0.5089 0.5397 0.5608 0.484 0.434 0.5349 0.438 0.433 0.5639
3655.413 0.63612 0.5425 0.414 0.492 0.461 0.43 0.5563 0.59624 0.503 0.5184
3674.703 0.415 0.328 0.396 0.491 0.505 0.498 0.5158 0.568 0.495 0.399
3693.993 0.549 0.5891 0.473 0.5083 0.5379 0.5051 0.65504 0.611826 0.48 0.5594
3713.282 0.5684 0.60125 0.63438 0.59895 0.63956 0.60157 0.5474 0.499 0.5067 0.453
3732.572 0.435 0.5602 0.5745 0.5781 0.5475 0.446 0.5289 0.66078 0.609707 0.61781
3751.862 0.70273 0.607508 0.403 0.5495 0.7259 0.63006 0.63213 0.62359 0.485 0.491
3771.152 0.607069 0.5827 0.493 0.62713 0.7699 0.7103 0.5756 0.594 0.7057 0.69403
3790.441 0.606461 0.612285 0.5803 0.59762 0.65129 0.5799 0.635 0.66594 0.5624 0.62321
3809.731 0.68484 0.63454 0.66193 0.7306 0.7748 0.899 0.9156 0.8357 0.8038 0.7441
3829.021 0.9371 1.0379 0.9764 0.957 0.8347 0.7648 0.8671 0.9976 1.0745 1.0346
3848.311 0.944 0.8911 0.9041 0.7664 0.8151 0.8444 0.7878 0.7856 0.7347 0.8983
3867.601 0.9621 0.9409 0.8757 0.8622 0.7791 0.8706 0.9755 0.8851 0.9256 0.8592
3886.890 0.9092 1.0767 1.1241 0.9632 0.876 0.9847 1.0286 1.007 1.0243 1.0283
3906.180 1.1565 1.1139 0.9881 1.0972 1.0644 1.0614 1.1049 1.1819 1.2912 1.2359
3925.470 1.1415 1.1842 1.2064 1.1277 1.1216 1.2442 1.2532 1.2316 1.1956 1.216
3944.760 1.2735 1.1936 1.1592 1.1096 1.0914 1.1796 1.2316 1.2845 1.352 1.4485
3964.049 1.3961 1.408 1.4774 1.4832 1.725 1.645 1.3848 1.302 1.3634 1.5936
3983.339 1.725 1.665 1.531 1.5527 1.685 1.745 1.695 1.725 1.755 1.765
##END=
