##TITLE=1-CHLORO-2-BUTENE
##JCAMP-DX=4.24
##DATA TYPE=INFRARED SPECTRUM
##CLASS=COBLENTZ
##ORIGIN=W.T. BOLLETER
##OWNER=COBLENTZ SOCIETY
Collection (C) 2018 copyright by the U.S. Secretary of Commerce
on behalf of the United States of America. All rights reserved.
##DATE=Not specified, most likely prior to 1970
##NAMES=(2E)-1-chloro-2-butene
##CAS REGISTRY NO=591-97-9
##MOLFORM=C4 H7 Cl
##SOURCE REFERENCE=COBLENTZ NO. 4507
##$NIST SOURCE=COBLENTZ
##$NIST IMAGE=cob4507
##SPECTROMETER/DATA SYSTEM=Not specified, most likely a prism, grating, or hybrid spectrometer.
##PATH LENGTH=0.0025 CM
##SAMPLING PROCEDURE=TRANSMISSION
##RESOLUTION=4
##DATA PROCESSING=DIGITIZED BY NIST FROM HARD COPY
##XUNITS=MICROMETERS
##YUNITS=TRANSMITTANCE
##XFACTOR=1.000000
##YFACTOR=1
##DELTAX=000.017516
##FIRSTX=14.511
##LASTX=37.9995
##FIRSTY=0.01
##MAXX=37.9995
##MINX=14.511
##MAXY=0.86
##MINY=0.01
##NPOINTS=1342
##XYDATA=(X++(Y..Y))
14.511000 0.0100 0.0100 0.0100 0.0100 0.0100
14.598645 0.0100 0.0100 0.0100 0.0100 0.0100
14.686000 0.0100 0.0100 0.0100 0.0100 0.0100
14.773645 0.0100 0.0100 0.0100 0.0100 0.0100
14.861000 0.0100 0.0100 0.0100 0.0100 0.0100
14.948645 0.0100 0.0100 0.0100 0.0100 0.0100
15.037000 0.0100 0.0100 0.0100 0.0100 0.0100
15.124645 0.0100 0.0100 0.0100 0.0100 0.0100
15.212000 0.0100 0.0100 0.0100 0.0100 0.0100
15.299645 0.0100 0.0100 0.0100 0.0100 0.0100
15.387000 0.0120 0.0140 0.0140 0.0160 0.0190
15.474645 0.0250 0.0280 0.0300 0.0330 0.0370
15.562000 0.0390 0.0410 0.0480 0.0500 0.0580
15.649645 0.0670 0.0780 0.0850 0.0890 0.0920
15.737000 0.0980 0.1000 0.1010 0.1030 0.1170
15.824645 0.1300 0.1350 0.1420 0.1480 0.1510
15.912000 0.1580 0.1640 0.1670 0.1730 0.1800
15.999645 0.1870 0.1940 0.2000 0.2050 0.2070
16.088000 0.2140 0.2190 0.2250 0.2320 0.2350
16.175645 0.2410 0.2420 0.2480 0.2550 0.2620
16.263000 0.2670 0.2730 0.2780 0.2830 0.2890
16.350645 0.2960 0.3030 0.3100 0.3160 0.3230
16.438000 0.3300 0.3370 0.3420 0.3480 0.3550
16.525645 0.3580 0.3640 0.3690 0.3730 0.3780
16.613000 0.3800 0.3820 0.3830 0.3870 0.3870
16.700645 0.3910 0.3920 0.3960 0.3980 0.3980
16.788000 0.4000 0.4010 0.4030 0.4100 0.4140
16.875645 0.4170 0.4190 0.4250 0.4260 0.4300
16.963000 0.4320 0.4350 0.4390 0.4410 0.4440
17.050645 0.4460 0.4480 0.4500 0.4500 0.4500
17.139000 0.4500 0.4480 0.4460 0.4440 0.4390
17.226645 0.4320 0.4260 0.4190 0.4140 0.4050
17.314000 0.4000 0.3920 0.3850 0.3820 0.3780
17.401645 0.3750 0.3730 0.3730 0.3760 0.3820
17.489000 0.3890 0.4010 0.4120 0.4230 0.4320
17.576645 0.4410 0.4480 0.4550 0.4620 0.4730
17.664000 0.4800 0.4870 0.4980 0.5030 0.5050
17.751645 0.5120 0.5140 0.5160 0.5210 0.5230
17.839000 0.5250 0.5260 0.5280 0.5300 0.5350
17.926645 0.5370 0.5390 0.5480 0.5530 0.5640
18.014000 0.5750 0.5870 0.5960 0.5980 0.6050
18.101645 0.6070 0.6170 0.6250 0.6320 0.6410
18.189000 0.6510 0.6570 0.6670 0.6780 0.6870
18.276645 0.6980 0.7010 0.7070 0.7170 0.7230
18.365000 0.7260 0.7300 0.7350 0.7390 0.7440
18.452645 0.7510 0.7530 0.7570 0.7600 0.7640
18.540000 0.7670 0.7710 0.7710 0.7730 0.7730
18.627645 0.7750 0.7750 0.7750 0.7760 0.7760
18.715000 0.7760 0.7750 0.7750 0.7730 0.7730
18.802645 0.7710 0.7710 0.7690 0.7690 0.7670
18.890000 0.7660 0.7620 0.7600 0.7580 0.7570
18.977645 0.7570 0.7570 0.7580 0.7600 0.7620
19.065000 0.7640 0.7660 0.7690 0.7710 0.7750
19.152645 0.7760 0.7780 0.7800 0.7820 0.7820
19.240000 0.7830 0.7830 0.7850 0.7850 0.7850
19.327645 0.7850 0.7830 0.7830 0.7820 0.7800
19.416000 0.7780 0.7760 0.7750 0.7730 0.7690
19.503645 0.7660 0.7640 0.7600 0.7580 0.7550
19.591000 0.7510 0.7460 0.7410 0.7390 0.7370
19.678645 0.7330 0.7300 0.7230 0.7190 0.7140
19.766000 0.7050 0.7010 0.6980 0.6830 0.6760
19.853645 0.6690 0.6570 0.6510 0.6390 0.6260
19.941000 0.6140 0.6010 0.5890 0.5760 0.5600
20.028645 0.5440 0.5260 0.5050 0.4960 0.4870
20.116000 0.4690 0.4510 0.4320 0.4120 0.3940
20.203645 0.3750 0.3570 0.3370 0.3190 0.3050
20.291000 0.2910 0.2750 0.2670 0.2600 0.2570
20.378645 0.2530 0.2510 0.2530 0.2580 0.2710
20.467000 0.2830 0.3010 0.3190 0.3390 0.3550
20.554645 0.3750 0.3920 0.4080 0.4250 0.4420
20.642000 0.4570 0.4710 0.4850 0.4980 0.5250
20.729645 0.5390 0.5510 0.5580 0.5750 0.5960
20.817000 0.6030 0.6070 0.6120 0.6170 0.6250
20.904645 0.6330 0.6460 0.6510 0.6550 0.6600
20.992000 0.6660 0.6730 0.6780 0.6800 0.6830
21.079645 0.6850 0.6870 0.6920 0.6980 0.7000
21.167000 0.7010 0.7050 0.7080 0.7100 0.7120
21.254645 0.7140 0.7140 0.7160 0.7170 0.7230
21.342000 0.7230 0.7250 0.7250 0.7250 0.7250
21.429645 0.7260 0.7260 0.7260 0.7260 0.7280
21.518000 0.7280 0.7260 0.7260 0.7250 0.7230
21.605645 0.7210 0.7210 0.7190 0.7170 0.7160
21.693000 0.7140 0.7120 0.7100 0.7100 0.7080
21.780645 0.7080 0.7070 0.7070 0.7050 0.7030
21.868000 0.7010 0.7000 0.6980 0.6920 0.6910
21.955645 0.6850 0.6830 0.6820 0.6820 0.6800
22.043000 0.6780 0.6760 0.6760 0.6760 0.6760
22.130645 0.6750 0.6750 0.6730 0.6710 0.6710
22.218000 0.6710 0.6710 0.6710 0.6690 0.6690
22.305645 0.6690 0.6670 0.6670 0.6660 0.6640
22.393000 0.6600 0.6580 0.6550 0.6530 0.6510
22.480645 0.6480 0.6420 0.6370 0.6320 0.6230
22.568000 0.6190 0.6140 0.6070 0.6030 0.5980
22.655645 0.5910 0.5870 0.5820 0.5750 0.5640
22.744000 0.5550 0.5510 0.5440 0.5370 0.5280
22.831645 0.5230 0.5210 0.5160 0.5120 0.5120
22.919000 0.5100 0.5100 0.5100 0.5120 0.5140
23.006645 0.5160 0.5190 0.5230 0.5250 0.5260
23.094000 0.5300 0.5350 0.5480 0.5510 0.5620
23.181645 0.5710 0.5780 0.5830 0.5910 0.5940
23.269000 0.6000 0.6030 0.6050 0.6120 0.6170
23.356645 0.6260 0.6320 0.6410 0.6500 0.6500
23.444000 0.6550 0.6640 0.6710 0.6750 0.6820
23.531645 0.6870 0.6910 0.6960 0.7010 0.7050
23.619000 0.7100 0.7140 0.7190 0.7250 0.7320
23.706645 0.7390 0.7410 0.7440 0.7480 0.7530
23.795000 0.7600 0.7660 0.7710 0.7750 0.7800
23.882645 0.7830 0.7850 0.7910 0.7960 0.7980
23.970000 0.8000 0.8010 0.8050 0.8080 0.8140
24.057645 0.8160 0.8170 0.8190 0.8210 0.8250
24.145000 0.8260 0.8280 0.8300 0.8320 0.8320
24.232645 0.8330 0.8330 0.8350 0.8350 0.8370
24.320000 0.8370 0.8390 0.8410 0.8410 0.8420
24.407645 0.8420 0.8420 0.8420 0.8440 0.8440
24.495000 0.8440 0.8440 0.8460 0.8460 0.8460
24.582645 0.8460 0.8460 0.8460 0.8460 0.8460
24.670000 0.8480 0.8480 0.8480 0.8510 0.8510
24.757645 0.8530 0.8530 0.8530 0.8550 0.8550
24.846000 0.8570 0.8570 0.8580 0.8580 0.8580
24.933645 0.8580 0.8600 0.8600 0.8600 0.8600
25.021000 0.8600 0.8600 0.8600 0.8600 0.8600
25.108645 0.8580 0.8580 0.8580 0.8580 0.8570
25.196000 0.8550 0.8530 0.8510 0.8510 0.8510
25.283645 0.8500 0.8460 0.8410 0.8390 0.8370
25.371000 0.8330 0.8300 0.8260 0.8260 0.8250
25.458645 0.8250 0.8230 0.8210 0.8190 0.8160
25.546000 0.8140 0.8140 0.8140 0.8120 0.8120
25.633645 0.8120 0.8120 0.8120 0.8120 0.8100
25.721000 0.8080 0.8070 0.8030 0.8010 0.8010
25.808645 0.8010 0.8010 0.8010 0.8010 0.8010
25.896000 0.8030 0.8030 0.8030 0.8030 0.8030
25.983645 0.8030 0.8030 0.8010 0.8010 0.8010
26.072000 0.8010 0.8010 0.8010 0.8010 0.8010
26.159645 0.8010 0.8010 0.8010 0.8010 0.8000
26.247000 0.8000 0.8000 0.8000 0.7980 0.7980
26.334645 0.7960 0.7940 0.7910 0.7910 0.7890
26.422000 0.7870 0.7830 0.7820 0.7820 0.7800
26.509645 0.7780 0.7760 0.7760 0.7750 0.7730
26.597000 0.7710 0.7710 0.7690 0.7660 0.7600
26.684645 0.7530 0.7500 0.7460 0.7370 0.7330
26.772000 0.7300 0.7300 0.7280 0.7230 0.7190
26.859645 0.7160 0.7140 0.7120 0.7100 0.7080
26.947000 0.7050 0.7030 0.7000 0.6960 0.6940
27.034645 0.6910 0.6890 0.6850 0.6820 0.6780
27.123000 0.6730 0.6670 0.6640 0.6580 0.6530
27.210645 0.6510 0.6480 0.6420 0.6410 0.6390
27.298000 0.6370 0.6350 0.6330 0.6280 0.6210
27.385645 0.6140 0.6030 0.5980 0.5890 0.5830
27.473000 0.5800 0.5750 0.5690 0.5620 0.5550
27.560645 0.5500 0.5410 0.5320 0.5120 0.5000
27.648000 0.4940 0.4870 0.4780 0.4670 0.4600
27.735645 0.4500 0.4390 0.4280 0.4170 0.4070
27.823000 0.3960 0.3820 0.3670 0.3500 0.3280
27.910645 0.3100 0.3000 0.2940 0.2760 0.2640
27.998000 0.2550 0.2510 0.2460 0.2390 0.2320
28.085645 0.2190 0.2010 0.1760 0.1580 0.1500
28.174000 0.1460 0.1370 0.1320 0.1250 0.1190
28.261645 0.1140 0.1030 0.1010 0.0980 0.0940
28.349000 0.0910 0.0910 0.0890 0.0890 0.0890
28.436645 0.0890 0.0910 0.0920 0.0940 0.1000
28.524000 0.1010 0.1050 0.1120 0.1190 0.1350
28.611645 0.1460 0.1510 0.1600 0.1670 0.1760
28.699000 0.1890 0.2010 0.2100 0.2170 0.2280
28.786645 0.2410 0.2730 0.2890 0.3050 0.3170
28.874000 0.3280 0.3350 0.3440 0.3500 0.3570
28.961645 0.3640 0.3730 0.3870 0.4070 0.4320
29.049000 0.4410 0.4460 0.4530 0.4690 0.4760
29.136645 0.4820 0.4890 0.4980 0.5160 0.5210
29.225000 0.5230 0.5260 0.5350 0.5480 0.5570
29.312645 0.5690 0.5820 0.5910 0.5980 0.6010
29.400000 0.6030 0.6050 0.6080 0.6140 0.6170
29.487645 0.6250 0.6320 0.6350 0.6410 0.6460
29.575000 0.6500 0.6550 0.6600 0.6620 0.6710
29.662645 0.6730 0.6750 0.6760 0.6800 0.6850
29.750000 0.6910 0.6940 0.6980 0.7030 0.7080
29.837645 0.7100 0.7120 0.7120 0.7160 0.7190
29.925000 0.7230 0.7250 0.7260 0.7280 0.7320
30.012645 0.7370 0.7410 0.7420 0.7460 0.7510
30.100000 0.7510 0.7530 0.7530 0.7550 0.7550
30.187645 0.7550 0.7550 0.7550 0.7570 0.7570
30.275000 0.7580 0.7620 0.7660 0.7670 0.7670
30.362645 0.7690 0.7690 0.7690 0.7690 0.7710
30.451000 0.7710 0.7710 0.7730 0.7730 0.7730
30.538645 0.7730 0.7730 0.7730 0.7730 0.7730
30.626000 0.7730 0.7730 0.7730 0.7730 0.7730
30.713645 0.7730 0.7710 0.7710 0.7690 0.7690
30.801000 0.7690 0.7690 0.7690 0.7690 0.7690
30.888645 0.7690 0.7690 0.7690 0.7670 0.7670
30.976000 0.7660 0.7660 0.7660 0.7660 0.7660
31.063645 0.7640 0.7640 0.7640 0.7640 0.7640
31.151000 0.7640 0.7640 0.7640 0.7640 0.7640
31.238645 0.7660 0.7660 0.7670 0.7690 0.7690
31.326000 0.7690 0.7690 0.7670 0.7660 0.7660
31.413645 0.7660 0.7660 0.7660 0.7640 0.7640
31.502000 0.7640 0.7640 0.7660 0.7660 0.7670
31.589645 0.7690 0.7690 0.7710 0.7710 0.7710
31.677000 0.7710 0.7690 0.7690 0.7690 0.7690
31.764645 0.7690 0.7690 0.7690 0.7690 0.7690
31.852000 0.7690 0.7690 0.7670 0.7670 0.7670
31.939645 0.7690 0.7690 0.7690 0.7690 0.7690
32.027000 0.7690 0.7670 0.7670 0.7660 0.7660
32.114645 0.7660 0.7640 0.7640 0.7640 0.7640
32.202000 0.7640 0.7620 0.7620 0.7600 0.7600
32.289645 0.7580 0.7580 0.7580 0.7570 0.7570
32.377000 0.7550 0.7530 0.7530 0.7530 0.7510
32.464645 0.7510 0.7510 0.7500 0.7500 0.7500
32.553000 0.7500 0.7500 0.7480 0.7480 0.7480
32.640645 0.7480 0.7480 0.7460 0.7460 0.7460
32.728000 0.7460 0.7460 0.7480 0.7480 0.7480
32.815645 0.7480 0.7480 0.7480 0.7480 0.7480
32.903000 0.7480 0.7480 0.7460 0.7460 0.7460
32.990645 0.7460 0.7460 0.7460 0.7440 0.7440
33.078000 0.7420 0.7390 0.7370 0.7330 0.7330
33.165645 0.7320 0.7300 0.7280 0.7250 0.7230
33.253000 0.7190 0.7170 0.7160 0.7140 0.7120
33.340645 0.7080 0.7080 0.7070 0.7050 0.7030
33.428000 0.7010 0.7010 0.7000 0.7000 0.7000
33.515645 0.7000 0.7000 0.7000 0.6980 0.6980
33.604000 0.6960 0.6960 0.6940 0.6920 0.6910
33.691645 0.6890 0.6870 0.6820 0.6780 0.6760
33.779000 0.6730 0.6710 0.6670 0.6660 0.6620
33.866645 0.6600 0.6580 0.6530 0.6510 0.6460
33.954000 0.6440 0.6300 0.6250 0.6230 0.6170
34.041645 0.6120 0.6080 0.6050 0.6000 0.5960
34.129000 0.5940 0.5920 0.5910 0.5830 0.5820
34.216645 0.5780 0.5760 0.5710 0.5640 0.5570
34.304000 0.5500 0.5460 0.5420 0.5410 0.5330
34.391645 0.5260 0.5210 0.5160 0.5140 0.5050
34.479000 0.5010 0.4980 0.4870 0.4780 0.4710
34.566645 0.4640 0.4620 0.4600 0.4580 0.4530
34.654000 0.4510 0.4500 0.4460 0.4320 0.4170
34.741645 0.4100 0.4010 0.4000 0.3960 0.3940
34.830000 0.3870 0.3830 0.3780 0.3710 0.3670
34.917645 0.3640 0.3550 0.3500 0.3420 0.3320
35.005000 0.3230 0.3140 0.3080 0.3050 0.3010
35.092645 0.3010 0.2980 0.2960 0.2910 0.2850
35.180000 0.2780 0.2710 0.2660 0.2620 0.2550
35.267645 0.2500 0.2480 0.2460 0.2460 0.2410
35.355000 0.2390 0.2350 0.2320 0.2260 0.2250
35.442645 0.2190 0.2140 0.2100 0.2080 0.2070
35.530000 0.2030 0.2010 0.2010 0.2000 0.2000
35.617645 0.1980 0.1980 0.1960 0.1940 0.1940
35.705000 0.1920 0.1910 0.1910 0.1910 0.1910
35.792645 0.1910 0.1910 0.1890 0.1890 0.1870
35.881000 0.1830 0.1820 0.1820 0.1800 0.1780
35.968645 0.1760 0.1760 0.1750 0.1750 0.1760
36.056000 0.1760 0.1760 0.1780 0.1780 0.1800
36.143645 0.1800 0.1800 0.1820 0.1820 0.1830
36.231000 0.1830 0.1830 0.1830 0.1830 0.1830
36.318645 0.1830 0.1850 0.1850 0.1870 0.1890
36.406000 0.1890 0.1890 0.1890 0.1890 0.1890
36.493645 0.1910 0.1910 0.1910 0.1910 0.1910
36.581000 0.1910 0.1910 0.1910 0.1920 0.1920
36.668645 0.1940 0.1940 0.1940 0.1960 0.1960
36.756000 0.1980 0.2000 0.2000 0.2010 0.2030
36.843645 0.2030 0.2050 0.2050 0.2070 0.2080
36.932000 0.2100 0.2100 0.2120 0.2140 0.2160
37.019645 0.2170 0.2190 0.2210 0.2230 0.2250
37.107000 0.2250 0.2260 0.2260 0.2280 0.2280
37.194645 0.2300 0.2320 0.2330 0.2350 0.2350
37.282000 0.2370 0.2390 0.2390 0.2390 0.2410
37.369645 0.2410 0.2410 0.2420 0.2440 0.2460
37.457000 0.2480 0.2480 0.2480 0.2480 0.2480
37.544645 0.2500 0.2500 0.2510 0.2510 0.2510
37.632000 0.2510 0.2530 0.2530 0.2530 0.2550
37.719645 0.2570 0.2580 0.2580 0.2600 0.2600
37.807000 0.2600 0.2600 0.2600 0.2580 0.2580
37.894645 0.2580 0.2570 0.2570 0.2570 0.2570
37.982000 0.2550 0.2570
##END=
