##TITLE=ETHYL METHYL SULFIDE
##JCAMP-DX=4.24
##DATA TYPE=INFRARED SPECTRUM
##CLASS=COBLENTZ
##ORIGIN=WYANDOTTE CHEMICALS CORP., WYANDOTTE, MICHIGAN, USA
##OWNER=COBLENTZ SOCIETY
Collection (C) 2018 copyright by the U.S. Secretary of Commerce
on behalf of the United States of America. All rights reserved.
##DATE=Not specified, most likely prior to 1970
##NAMES=1-(methylsulfanyl)ethane
##CAS REGISTRY NO=624-89-5
##MOLFORM=C3 H8 S
##BP=65-67 C
##SOURCE REFERENCE=COBLENTZ NO. 3838
##$NIST SOURCE=COBLENTZ
##$NIST IMAGE=cob3838
##SPECTROMETER/DATA SYSTEM=Not specified, most likely a prism, grating, or hybrid spectrometer.
##STATE=LIQUID
##PATH LENGTH=0.005 CM
##SAMPLING PROCEDURE=TRANSMISSION
##RESOLUTION=4
##DATA PROCESSING=DIGITIZED BY NIST FROM HARD COPY
##XUNITS=MICROMETERS
##YUNITS=TRANSMITTANCE
##XFACTOR=1.000000
##YFACTOR=1
##DELTAX=000.006192
##FIRSTX=2.012
##LASTX=16.006
##FIRSTY=0.961
##MAXX=16.006
##MINX=2.012
##MAXY=0.992
##MINY=0.024
##NPOINTS=2261
##XYDATA=(X++(Y..Y))
2.012000 0.9610 0.9610 0.9610 0.9620 0.9620
2.042973 0.9640 0.9640 0.9640 0.9640 0.9650
2.074000 0.9680 0.9680 0.9680 0.9680 0.9680
2.104973 0.9650 0.9640 0.9610 0.9590 0.9560
2.136000 0.9550 0.9510 0.9470 0.9420 0.9330
2.166973 0.9170 0.8930 0.8550 0.8230 0.8040
2.198000 0.7900 0.7820 0.7780 0.7760 0.7750
2.228973 0.7750 0.7750 0.7760 0.7780 0.7810
2.260000 0.7870 0.7930 0.7960 0.8090 0.8180
2.290973 0.8270 0.8340 0.8410 0.8480 0.8540
2.322000 0.8600 0.8680 0.8750 0.8850 0.8960
2.352973 0.9000 0.9050 0.9100 0.9110 0.9130
2.384000 0.9130 0.9110 0.9100 0.9080 0.9060
2.414973 0.9060 0.9080 0.9080 0.9080 0.9080
2.446000 0.9080 0.9080 0.9060 0.9050 0.9030
2.476973 0.9020 0.9000 0.8990 0.8990 0.8990
2.508000 0.8990 0.9000 0.9050 0.9110 0.9140
2.538973 0.9170 0.9200 0.9240 0.9280 0.9310
2.570000 0.9330 0.9340 0.9360 0.9370 0.9390
2.600973 0.9420 0.9450 0.9450 0.9470 0.9480
2.632000 0.9480 0.9480 0.9480 0.9480 0.9480
2.662973 0.9480 0.9480 0.9480 0.9480 0.9480
2.693000 0.9470 0.9470 0.9450 0.9440 0.9420
2.723973 0.9410 0.9410 0.9390 0.9370 0.9340
2.755000 0.9330 0.9300 0.9280 0.9270 0.9240
2.785973 0.9200 0.9200 0.9190 0.9190 0.9190
2.817000 0.9160 0.9160 0.9140 0.9130 0.9110
2.847973 0.9110 0.9110 0.9110 0.9110 0.9130
2.879000 0.9130 0.9130 0.9140 0.9170 0.9190
2.909973 0.9200 0.9220 0.9240 0.9250 0.9280
2.941000 0.9340 0.9340 0.9370 0.9390 0.9390
2.971973 0.9370 0.9370 0.9370 0.9360 0.9340
3.003000 0.9340 0.9330 0.9280 0.9240 0.9200
3.033973 0.9170 0.9160 0.9130 0.9130 0.9110
3.065000 0.9080 0.9080 0.9050 0.9030 0.8990
3.095973 0.8940 0.8830 0.8750 0.8660 0.8550
3.127000 0.8460 0.8380 0.8270 0.8200 0.8120
3.157973 0.8100 0.8100 0.8100 0.8090 0.8090
3.189000 0.8070 0.8040 0.8000 0.7950 0.7900
3.219973 0.7840 0.7780 0.7680 0.7610 0.7500
3.251000 0.7370 0.7240 0.7100 0.6930 0.6710
3.281973 0.6550 0.6240 0.5810 0.5270 0.4630
3.313000 0.3890 0.3080 0.2210 0.1270 0.0690
3.343973 0.0320 0.0240 0.0240 0.0260 0.0270
3.375000 0.0310 0.0320 0.0350 0.0350 0.0320
3.405973 0.0240 0.0240 0.0270 0.0340 0.0350
3.437000 0.0400 0.0410 0.0440 0.0510 0.0520
3.467973 0.0520 0.0520 0.0520 0.0540 0.0570
3.498000 0.0630 0.0720 0.0860 0.1060 0.1190
3.528973 0.1340 0.1620 0.2060 0.2790 0.3670
3.560000 0.4430 0.4830 0.5980 0.6570 0.6820
3.590973 0.7170 0.7560 0.7790 0.7920 0.7980
3.622000 0.8060 0.8120 0.8130 0.8130 0.8130
3.652973 0.8120 0.8090 0.8040 0.7920 0.7900
3.684000 0.7900 0.7960 0.8060 0.8130 0.8170
3.714973 0.8210 0.8230 0.8270 0.8380 0.8510
3.746000 0.8650 0.8750 0.8820 0.8880 0.8960
3.776973 0.9000 0.9030 0.9050 0.9060 0.9060
3.808000 0.9060 0.9080 0.9080 0.9110 0.9130
3.838973 0.9160 0.9170 0.9190 0.9200 0.9220
3.870000 0.9240 0.9240 0.9250 0.9270 0.9270
3.900973 0.9280 0.9300 0.9300 0.9300 0.9300
3.932000 0.9300 0.9300 0.9300 0.9300 0.9300
3.962973 0.9300 0.9300 0.9280 0.9270 0.9240
3.994000 0.9190 0.9160 0.9130 0.9100 0.9080
4.024973 0.9060 0.9060 0.9060 0.9030 0.9030
4.056000 0.9030 0.9050 0.9050 0.9050 0.9020
4.086973 0.9020 0.9020 0.9030 0.9030 0.9050
4.118000 0.9050 0.9050 0.9050 0.9030 0.9000
4.148973 0.9000 0.8990 0.8970 0.8910 0.8860
4.180000 0.8800 0.8750 0.8740 0.8620 0.8600
4.210973 0.8620 0.8680 0.8710 0.8720 0.8720
4.241000 0.8690 0.8660 0.8660 0.8660 0.8680
4.271973 0.8680 0.8680 0.8690 0.8710 0.8740
4.303000 0.8790 0.8820 0.8880 0.8880 0.8910
4.333973 0.8960 0.8970 0.8990 0.8990 0.9020
4.365000 0.9050 0.9130 0.9190 0.9250 0.9270
4.395973 0.9300 0.9310 0.9310 0.9300 0.9280
4.427000 0.9280 0.9270 0.9220 0.9190 0.9060
4.457973 0.8960 0.8880 0.8860 0.8880 0.8890
4.489000 0.8940 0.8990 0.9050 0.9080 0.9100
4.519973 0.9100 0.9100 0.9100 0.9100 0.9080
4.551000 0.9080 0.9060 0.9050 0.9060 0.9100
4.581973 0.9110 0.9110 0.9140 0.9240 0.9270
4.613000 0.9300 0.9310 0.9330 0.9330 0.9310
4.643973 0.9300 0.9280 0.9280 0.9220 0.9160
4.675000 0.9100 0.9100 0.9110 0.9160 0.9200
4.705973 0.9240 0.9280 0.9340 0.9410 0.9420
4.737000 0.9440 0.9440 0.9440 0.9450 0.9470
4.767973 0.9500 0.9530 0.9550 0.9560 0.9610
4.799000 0.9640 0.9650 0.9670 0.9670 0.9670
4.829973 0.9670 0.9670 0.9670 0.9670 0.9670
4.861000 0.9650 0.9640 0.9620 0.9620 0.9640
4.891973 0.9640 0.9650 0.9670 0.9670 0.9640
4.923000 0.9610 0.9640 0.9620 0.9580 0.9530
4.953973 0.9500 0.9480 0.9500 0.9500 0.9500
4.985000 0.9510 0.9560 0.9580 0.9620 0.9680
5.015973 0.9680 0.9610 0.9560 0.9530 0.9510
5.046000 0.9530 0.9550 0.9560 0.9590 0.9590
5.076973 0.9620 0.9620 0.9680 0.9670 0.9680
5.108000 0.9700 0.9700 0.9700 0.9680 0.9670
5.138973 0.9670 0.9650 0.9650 0.9670 0.9680
5.170000 0.9680 0.9680 0.9700 0.9700 0.9700
5.200973 0.9700 0.9680 0.9680 0.9680 0.9680
5.232000 0.9680 0.9680 0.9680 0.9680 0.9680
5.262973 0.9680 0.9680 0.9680 0.9680 0.9680
5.294000 0.9680 0.9680 0.9680 0.9680 0.9680
5.324973 0.9700 0.9700 0.9720 0.9730 0.9780
5.356000 0.9790 0.9790 0.9810 0.9820 0.9840
5.386973 0.9870 0.9900 0.9920 0.9900 0.9900
5.418000 0.9890 0.9870 0.9870 0.9870 0.9870
5.448973 0.9890 0.9890 0.9900 0.9890 0.9870
5.480000 0.9870 0.9840 0.9820 0.9810 0.9810
5.510973 0.9790 0.9760 0.9720 0.9680 0.9680
5.542000 0.9670 0.9670 0.9650 0.9640 0.9640
5.572973 0.9640 0.9620 0.9620 0.9620 0.9620
5.604000 0.9620 0.9620 0.9620 0.9620 0.9610
5.634973 0.9610 0.9610 0.9610 0.9610 0.9640
5.666000 0.9640 0.9640 0.9640 0.9640 0.9640
5.696973 0.9620 0.9620 0.9610 0.9610 0.9610
5.728000 0.9610 0.9610 0.9590 0.9590 0.9580
5.758973 0.9550 0.9510 0.9470 0.9420 0.9370
5.789000 0.9340 0.9310 0.9310 0.9310 0.9310
5.819973 0.9300 0.9300 0.9280 0.9270 0.9270
5.851000 0.9270 0.9270 0.9270 0.9270 0.9250
5.881973 0.9240 0.9240 0.9220 0.9220 0.9190
5.913000 0.9160 0.9140 0.9130 0.9130 0.9110
5.943973 0.9110 0.9100 0.9080 0.9060 0.9050
5.975000 0.9030 0.9030 0.9020 0.9020 0.9020
6.005973 0.9020 0.9020 0.9000 0.9000 0.8990
6.037000 0.8990 0.8990 0.8990 0.8970 0.8960
6.067973 0.8930 0.8890 0.8860 0.8790 0.8720
6.099000 0.8680 0.8630 0.8580 0.8580 0.8520
6.129973 0.8490 0.8440 0.8380 0.8310 0.8240
6.161000 0.8230 0.8240 0.8240 0.8270 0.8270
6.191973 0.8290 0.8290 0.8290 0.8290 0.8270
6.223000 0.8270 0.8270 0.8260 0.8240 0.8240
6.253973 0.8230 0.8230 0.8230 0.8240 0.8240
6.285000 0.8240 0.8230 0.8230 0.8230 0.8210
6.315973 0.8210 0.8200 0.8180 0.8170 0.8130
6.347000 0.8130 0.8130 0.8130 0.8130 0.8130
6.377973 0.8130 0.8130 0.8120 0.8120 0.8100
6.409000 0.8060 0.8060 0.8040 0.8030 0.8010
6.439973 0.8000 0.8000 0.7980 0.7920 0.7870
6.471000 0.7820 0.7810 0.7750 0.7720 0.7700
6.501973 0.7680 0.7680 0.7670 0.7620 0.7590
6.533000 0.7590 0.7530 0.7500 0.7480 0.7420
6.563973 0.7360 0.7300 0.7280 0.7280 0.7270
6.594000 0.7240 0.7200 0.7130 0.7000 0.6940
6.624973 0.6800 0.6720 0.6680 0.6620 0.6520
6.656000 0.6350 0.6260 0.6120 0.5980 0.5860
6.686973 0.5680 0.5500 0.5360 0.5280 0.5130
6.718000 0.4960 0.4750 0.4580 0.4460 0.4270
6.748973 0.4120 0.3900 0.3510 0.3110 0.2690
6.780000 0.2410 0.2200 0.1790 0.1360 0.1140
6.810973 0.0860 0.0800 0.0680 0.0570 0.0490
6.842000 0.0400 0.0320 0.0290 0.0290 0.0340
6.872973 0.0340 0.0340 0.0320 0.0320 0.0310
6.904000 0.0310 0.0310 0.0310 0.0310 0.0320
6.934973 0.0320 0.0320 0.0320 0.0320 0.0320
6.966000 0.0320 0.0320 0.0320 0.0340 0.0350
6.996973 0.0410 0.0540 0.0680 0.0850 0.0960
7.028000 0.1140 0.1410 0.1700 0.2010 0.2270
7.058973 0.2460 0.2690 0.2890 0.3050 0.3240
7.090000 0.3360 0.3480 0.3700 0.3890 0.4060
7.120973 0.4180 0.4270 0.4310 0.4400 0.4460
7.152000 0.4520 0.4580 0.4600 0.4620 0.4600
7.182973 0.4540 0.4490 0.4350 0.4170 0.3920
7.214000 0.3650 0.3360 0.2910 0.2520 0.2170
7.244973 0.1860 0.1510 0.1450 0.1450 0.1580
7.276000 0.1960 0.2460 0.3060 0.3610 0.4150
7.306973 0.4600 0.5020 0.5360 0.5670 0.5930
7.337000 0.6060 0.6230 0.6340 0.6410 0.6510
7.367973 0.6620 0.6690 0.6750 0.6750 0.6820
7.399000 0.6880 0.6890 0.6910 0.6910 0.6940
7.429973 0.6960 0.6970 0.6990 0.6990 0.6960
7.461000 0.6930 0.6910 0.6880 0.6800 0.6790
7.491973 0.6750 0.6690 0.6570 0.6460 0.6320
7.523000 0.6150 0.5950 0.5670 0.5470 0.5250
7.553973 0.5000 0.4790 0.4740 0.4740 0.4800
7.585000 0.5020 0.5200 0.5340 0.5410 0.5410
7.615973 0.5370 0.5280 0.5200 0.5130 0.5080
7.647000 0.5060 0.5060 0.5110 0.5250 0.5330
7.677973 0.5420 0.5510 0.5610 0.5720 0.5760
7.709000 0.5810 0.5820 0.5820 0.5820 0.5820
7.739973 0.5790 0.5700 0.5610 0.5530 0.5340
7.771000 0.5190 0.5000 0.4850 0.4680 0.4440
7.801973 0.4040 0.3590 0.3500 0.3060 0.2800
7.833000 0.2410 0.2100 0.1620 0.1200 0.0940
7.863973 0.0660 0.0540 0.0410 0.0310 0.0260
7.895000 0.0240 0.0260 0.0260 0.0270 0.0290
7.925973 0.0340 0.0400 0.0510 0.0600 0.0750
7.957000 0.1050 0.1300 0.1550 0.1760 0.1920
7.987973 0.2130 0.2340 0.2580 0.2830 0.3080
8.019000 0.3340 0.3580 0.3840 0.4150 0.4440
8.049973 0.4740 0.5030 0.5310 0.5590 0.5840
8.080000 0.6010 0.6200 0.6320 0.6400 0.6580
8.110973 0.6710 0.6790 0.6890 0.7020 0.7130
8.142000 0.7220 0.7280 0.7330 0.7410 0.7480
8.172973 0.7590 0.7700 0.7750 0.7760 0.7820
8.204000 0.7950 0.8000 0.8040 0.8090 0.8120
8.234973 0.8170 0.8180 0.8200 0.8210 0.8230
8.266000 0.8270 0.8290 0.8350 0.8380 0.8400
8.296973 0.8430 0.8480 0.8490 0.8510 0.8540
8.328000 0.8580 0.8630 0.8660 0.8680 0.8690
8.358973 0.8710 0.8710 0.8720 0.8720 0.8710
8.390000 0.8710 0.8720 0.8750 0.8790 0.8790
8.420973 0.8790 0.8800 0.8800 0.8830 0.8850
8.452000 0.8860 0.8880 0.8880 0.8880 0.8880
8.482973 0.8890 0.8890 0.8910 0.8930 0.8960
8.514000 0.8970 0.8990 0.8990 0.8990 0.8990
8.544973 0.8990 0.8990 0.8990 0.8990 0.8970
8.576000 0.8970 0.8990 0.8990 0.8990 0.9000
8.606973 0.9020 0.9020 0.9000 0.8990 0.8990
8.638000 0.8990 0.8990 0.8990 0.8990 0.8990
8.668973 0.8990 0.8990 0.8990 0.8990 0.8990
8.700000 0.8990 0.8990 0.8990 0.9000 0.9000
8.730973 0.9000 0.9000 0.9000 0.8990 0.8990
8.762000 0.8990 0.8990 0.8990 0.8990 0.8990
8.792973 0.8990 0.9000 0.9000 0.8970 0.8970
8.824000 0.8890 0.8860 0.8820 0.8770 0.8710
8.854973 0.8660 0.8580 0.8570 0.8520 0.8490
8.885000 0.8480 0.8410 0.8310 0.8270 0.8210
8.915973 0.8200 0.8180 0.8170 0.8170 0.8180
8.947000 0.8200 0.8210 0.8230 0.8270 0.8270
8.977973 0.8290 0.8320 0.8350 0.8370 0.8410
9.009000 0.8430 0.8440 0.8430 0.8410 0.8400
9.039973 0.8410 0.8410 0.8400 0.8380 0.8380
9.071000 0.8350 0.8340 0.8310 0.8290 0.8230
9.101973 0.8210 0.8200 0.8180 0.8130 0.8130
9.133000 0.8100 0.8100 0.8090 0.8070 0.8070
9.163973 0.8030 0.8000 0.7920 0.7860 0.7840
9.195000 0.7760 0.7700 0.7620 0.7550 0.7500
9.225973 0.7440 0.7360 0.7240 0.7130 0.7050
9.257000 0.6960 0.6860 0.6750 0.6630 0.6520
9.287973 0.6370 0.6230 0.6060 0.5810 0.5610
9.319000 0.5450 0.5170 0.4970 0.4660 0.4370
9.349973 0.4150 0.3810 0.3470 0.3080 0.2820
9.381000 0.2570 0.2480 0.2240 0.2060 0.1950
9.411973 0.1900 0.1920 0.1980 0.2170 0.2440
9.443000 0.2750 0.3000 0.3310 0.3670 0.3950
9.473973 0.4270 0.4540 0.4790 0.5050 0.5240
9.505000 0.5410 0.5580 0.5720 0.5860 0.5980
9.535973 0.6100 0.6180 0.6240 0.6310 0.6380
9.567000 0.6430 0.6510 0.6570 0.6630 0.6680
9.597973 0.6720 0.6790 0.6830 0.6880 0.6890
9.628000 0.6910 0.6930 0.6940 0.6960 0.6970
9.658973 0.6970 0.6970 0.6970 0.6960 0.6940
9.690000 0.6930 0.6930 0.6930 0.6930 0.6930
9.720973 0.6940 0.6940 0.6970 0.7000 0.7030
9.752000 0.7060 0.7100 0.7190 0.7190 0.7220
9.782973 0.7240 0.7240 0.7250 0.7250 0.7270
9.814000 0.7280 0.7300 0.7310 0.7310 0.7300
9.844973 0.7280 0.7270 0.7250 0.7240 0.7220
9.876000 0.7170 0.7130 0.7080 0.7050 0.7030
9.906973 0.7020 0.7020 0.7000 0.6990 0.6970
9.938000 0.6970 0.6990 0.6990 0.7000 0.7000
9.968973 0.6990 0.6990 0.6990 0.6970 0.6960
10.000000 0.6930 0.6880 0.6800 0.6720 0.6690
10.030973 0.6630 0.6600 0.6510 0.6460 0.6370
10.062000 0.6310 0.6240 0.6150 0.6010 0.5860
10.092973 0.5720 0.5620 0.5550 0.5360 0.5190
10.124000 0.5030 0.4820 0.4660 0.4460 0.4230
10.154973 0.4060 0.3900 0.3700 0.3550 0.3390
10.186000 0.3280 0.3170 0.3060 0.2960 0.2860
10.216973 0.2740 0.2580 0.2510 0.2460 0.2370
10.248000 0.2230 0.2150 0.2000 0.1870 0.1780
10.278973 0.1700 0.1620 0.1590 0.1510 0.1440
10.310000 0.1410 0.1370 0.1360 0.1360 0.1390
10.340973 0.1420 0.1450 0.1480 0.1530 0.1610
10.372000 0.1640 0.1700 0.1790 0.1840 0.1840
10.402973 0.1810 0.1750 0.1720 0.1680 0.1610
10.433000 0.1530 0.1500 0.1420 0.1330 0.1240
10.463973 0.1140 0.1080 0.1000 0.0960 0.0930
10.495000 0.0910 0.0930 0.0960 0.0990 0.1000
10.525973 0.1020 0.1050 0.1080 0.1130 0.1170
10.557000 0.1240 0.1340 0.1420 0.1500 0.1560
10.587973 0.1640 0.1730 0.1900 0.2010 0.2120
10.619000 0.2210 0.2350 0.2550 0.2770 0.3000
10.649973 0.3240 0.3470 0.3720 0.3960 0.4210
10.681000 0.4440 0.4690 0.4910 0.5130 0.5310
10.711973 0.5500 0.5640 0.5790 0.5950 0.6060
10.743000 0.6210 0.6310 0.6430 0.6520 0.6630
10.773973 0.6720 0.6850 0.6960 0.7000 0.7100
10.805000 0.7200 0.7300 0.7360 0.7390 0.7420
10.835973 0.7500 0.7560 0.7610 0.7680 0.7700
10.867000 0.7730 0.7780 0.7810 0.7890 0.7900
10.897973 0.7920 0.7950 0.7980 0.8000 0.8010
10.929000 0.8090 0.8120 0.8130 0.8180 0.8200
10.959973 0.8210 0.8230 0.8230 0.8230 0.8230
10.991000 0.8240 0.8240 0.8270 0.8290 0.8310
11.021973 0.8320 0.8340 0.8370 0.8400 0.8440
11.053000 0.8480 0.8480 0.8490 0.8510 0.8520
11.083973 0.8520 0.8570 0.8600 0.8620 0.8630
11.115000 0.8680 0.8690 0.8690 0.8690 0.8710
11.145973 0.8710 0.8710 0.8720 0.8740 0.8750
11.176000 0.8750 0.8770 0.8770 0.8790 0.8800
11.206973 0.8800 0.8820 0.8830 0.8830 0.8830
11.238000 0.8820 0.8830 0.8830 0.8830 0.8850
11.268973 0.8860 0.8860 0.8880 0.8910 0.8910
11.300000 0.8880 0.8860 0.8880 0.8860 0.8860
11.330973 0.8860 0.8860 0.8860 0.8850 0.8850
11.362000 0.8860 0.8860 0.8860 0.8860 0.8860
11.392973 0.8860 0.8860 0.8880 0.8890 0.8910
11.424000 0.8910 0.8910 0.8930 0.8940 0.8940
11.454973 0.8960 0.8960 0.8990 0.9020 0.9080
11.486000 0.9080 0.9100 0.9100 0.9110 0.9100
11.516973 0.9100 0.9100 0.9080 0.9080 0.9060
11.548000 0.9060 0.9080 0.9080 0.9080 0.9110
11.578973 0.9110 0.9100 0.9100 0.9100 0.9100
11.610000 0.9100 0.9100 0.9100 0.9100 0.9100
11.640973 0.9100 0.9100 0.9100 0.9110 0.9110
11.672000 0.9110 0.9130 0.9130 0.9110 0.9110
11.702973 0.9110 0.9110 0.9130 0.9140 0.9160
11.734000 0.9160 0.9160 0.9160 0.9160 0.9160
11.764973 0.9140 0.9140 0.9140 0.9140 0.9140
11.796000 0.9140 0.9140 0.9140 0.9140 0.9140
11.826973 0.9140 0.9140 0.9140 0.9140 0.9140
11.858000 0.9140 0.9140 0.9140 0.9140 0.9140
11.888973 0.9140 0.9140 0.9140 0.9140 0.9140
11.920000 0.9160 0.9170 0.9170 0.9160 0.9160
11.950973 0.9160 0.9160 0.9160 0.9140 0.9140
11.981000 0.9140 0.9140 0.9140 0.9160 0.9170
12.011973 0.9170 0.9170 0.9170 0.9170 0.9170
12.043000 0.9170 0.9160 0.9160 0.9160 0.9140
12.073973 0.9160 0.9140 0.9140 0.9130 0.9130
12.105000 0.9130 0.9110 0.9110 0.9110 0.9100
12.135973 0.9100 0.9100 0.9080 0.9080 0.9080
12.167000 0.9080 0.9060 0.9050 0.9050 0.9030
12.197973 0.9030 0.9030 0.9050 0.9050 0.9060
12.229000 0.9060 0.9060 0.9060 0.9060 0.9050
12.259973 0.9050 0.9050 0.9030 0.9020 0.9020
12.291000 0.9000 0.9000 0.8990 0.8970 0.8960
12.321973 0.8940 0.8970 0.8970 0.8970 0.8960
12.353000 0.8940 0.8910 0.8860 0.8850 0.8830
12.383973 0.8830 0.8820 0.8800 0.8790 0.8770
12.415000 0.8740 0.8710 0.8690 0.8680 0.8660
12.445973 0.8660 0.8630 0.8620 0.8580 0.8570
12.477000 0.8540 0.8490 0.8460 0.8410 0.8380
12.507973 0.8340 0.8320 0.8270 0.8230 0.8180
12.539000 0.8170 0.8120 0.8100 0.8030 0.7980
12.569973 0.7920 0.7870 0.7810 0.7750 0.7720
12.601000 0.7620 0.7530 0.7470 0.7370 0.7310
12.631973 0.7240 0.7160 0.7100 0.7060 0.7000
12.663000 0.6910 0.6850 0.6750 0.6660 0.6550
12.693973 0.6460 0.6380 0.6290 0.6180 0.6090
12.724000 0.5980 0.5840 0.5720 0.5670 0.5610
12.754973 0.5510 0.5480 0.5420 0.5390 0.5370
12.786000 0.5360 0.5370 0.5390 0.5450 0.5560
12.816973 0.5620 0.5670 0.5720 0.5790 0.5920
12.848000 0.6000 0.6070 0.6120 0.6180 0.6200
12.878973 0.6310 0.6380 0.6480 0.6510 0.6570
12.910000 0.6620 0.6630 0.6680 0.6690 0.6710
12.940973 0.6720 0.6750 0.6800 0.6800 0.6820
12.972000 0.6820 0.6820 0.6800 0.6790 0.6770
13.002973 0.6750 0.6710 0.6650 0.6570 0.6550
13.034000 0.6490 0.6440 0.6400 0.6320 0.6210
13.064973 0.6100 0.6000 0.5900 0.5810 0.5750
13.096000 0.5650 0.5510 0.5450 0.5300 0.5200
13.126973 0.5060 0.4940 0.4820 0.4750 0.4620
13.158000 0.4540 0.4400 0.4310 0.4240 0.4200
13.188973 0.4150 0.4100 0.4100 0.4120 0.4170
13.220000 0.4200 0.4230 0.4270 0.4400 0.4460
13.250973 0.4600 0.4750 0.4890 0.5080 0.5200
13.282000 0.5340 0.5500 0.5650 0.5820 0.5980
13.312973 0.6070 0.6200 0.6310 0.6440 0.6550
13.344000 0.6680 0.6820 0.6890 0.6970 0.7000
13.374973 0.7100 0.7170 0.7250 0.7300 0.7340
13.406000 0.7410 0.7440 0.7500 0.7510 0.7580
13.436973 0.7610 0.7670 0.7680 0.7730 0.7790
13.467000 0.7810 0.7870 0.7870 0.7900 0.7920
13.497973 0.7950 0.7950 0.7960 0.7960 0.8000
13.529000 0.8010 0.8030 0.8030 0.8030 0.8030
13.559973 0.8030 0.8030 0.8030 0.8030 0.8030
13.591000 0.8030 0.8030 0.8030 0.8010 0.8000
13.621973 0.8000 0.7980 0.7960 0.7900 0.7860
13.653000 0.7810 0.7780 0.7720 0.7650 0.7590
13.683973 0.7530 0.7470 0.7410 0.7340 0.7280
13.715000 0.7170 0.7060 0.6940 0.6770 0.6690
13.745973 0.6570 0.6480 0.6380 0.6270 0.6180
13.777000 0.6040 0.5950 0.5890 0.5840 0.5780
13.807973 0.5720 0.5700 0.5680 0.5680 0.5700
13.839000 0.5730 0.5810 0.5870 0.6000 0.6040
13.869973 0.6120 0.6240 0.6310 0.6410 0.6490
13.901000 0.6620 0.6720 0.6820 0.6910 0.7000
13.931973 0.7100 0.7190 0.7270 0.7340 0.7440
13.963000 0.7480 0.7560 0.7610 0.7670 0.7720
13.993973 0.7760 0.7790 0.7860 0.7920 0.7950
14.025000 0.7980 0.8010 0.8040 0.8070 0.8100
14.055973 0.8120 0.8180 0.8200 0.8230 0.8240
14.087000 0.8260 0.8270 0.8310 0.8340 0.8350
14.117973 0.8370 0.8370 0.8370 0.8380 0.8400
14.149000 0.8410 0.8410 0.8430 0.8440 0.8440
14.179973 0.8460 0.8460 0.8480 0.8480 0.8490
14.211000 0.8520 0.8540 0.8540 0.8540 0.8550
14.241973 0.8550 0.8550 0.8550 0.8550 0.8550
14.272000 0.8550 0.8550 0.8550 0.8550 0.8550
14.302973 0.8550 0.8550 0.8550 0.8550 0.8550
14.334000 0.8550 0.8550 0.8550 0.8550 0.8550
14.364973 0.8540 0.8510 0.8490 0.8480 0.8460
14.396000 0.8460 0.8480 0.8480 0.8480 0.8460
14.426973 0.8440 0.8400 0.8380 0.8370 0.8320
14.458000 0.8310 0.8310 0.8290 0.8270 0.8270
14.488973 0.8270 0.8260 0.8260 0.8230 0.8230
14.520000 0.8210 0.8200 0.8200 0.8200 0.8200
14.550973 0.8180 0.8170 0.8170 0.8180 0.8180
14.582000 0.8170 0.8170 0.8170 0.8170 0.8170
14.612973 0.8170 0.8170 0.8150 0.8170 0.8170
14.644000 0.8150 0.8130 0.8130 0.8120 0.8100
14.674973 0.8100 0.8120 0.8120 0.8130 0.8130
14.706000 0.8100 0.8090 0.8070 0.8010 0.8000
14.736973 0.8000 0.7980 0.7960 0.7920 0.7890
14.768000 0.7870 0.7840 0.7790 0.7790 0.7760
14.798973 0.7760 0.7700 0.7670 0.7590 0.7560
14.830000 0.7530 0.7530 0.7510 0.7510 0.7500
14.860973 0.7500 0.7480 0.7480 0.7500 0.7510
14.892000 0.7560 0.7560 0.7580 0.7580 0.7590
14.922973 0.7590 0.7610 0.7610 0.7620 0.7620
14.954000 0.7620 0.7620 0.7620 0.7620 0.7620
14.984973 0.7640 0.7640 0.7620 0.7620 0.7620
15.015000 0.7620 0.7620 0.7610 0.7590 0.7580
15.045973 0.7560 0.7560 0.7560 0.7560 0.7530
15.077000 0.7510 0.7500 0.7500 0.7500 0.7500
15.107973 0.7480 0.7480 0.7500 0.7510 0.7500
15.139000 0.7480 0.7470 0.7420 0.7410 0.7370
15.169973 0.7360 0.7330 0.7300 0.7270 0.7270
15.201000 0.7220 0.7190 0.7140 0.7080 0.7080
15.231973 0.7060 0.7000 0.6940 0.6850 0.6770
15.263000 0.6660 0.6540 0.6480 0.6370 0.6260
15.293973 0.6200 0.6130 0.6040 0.5980 0.5890
15.325000 0.5810 0.5730 0.5680 0.5610 0.5500
15.355973 0.5450 0.5370 0.5340 0.5330 0.5330
15.387000 0.5340 0.5360 0.5370 0.5390 0.5410
15.417973 0.5420 0.5440 0.5470 0.5500 0.5560
15.449000 0.5610 0.5680 0.5720 0.5790 0.5870
15.479973 0.5980 0.6030 0.6120 0.6200 0.6260
15.511000 0.6340 0.6400 0.6480 0.6490 0.6550
15.541973 0.6600 0.6680 0.6740 0.6800 0.6860
15.573000 0.6890 0.6910 0.6960 0.6990 0.7000
15.603973 0.7060 0.7110 0.7160 0.7190 0.7200
15.635000 0.7270 0.7300 0.7310 0.7310 0.7330
15.665973 0.7340 0.7360 0.7360 0.7370 0.7390
15.697000 0.7410 0.7420 0.7440 0.7450 0.7450
15.727973 0.7470 0.7470 0.7470 0.7480 0.7480
15.759000 0.7470 0.7470 0.7480 0.7480 0.7480
15.789973 0.7500 0.7510 0.7530 0.7530 0.7530
15.820000 0.7530 0.7530 0.7530 0.7510 0.7510
15.850973 0.7510 0.7500 0.7500 0.7480 0.7480
15.882000 0.7470 0.7470 0.7450 0.7440 0.7420
15.912973 0.7420 0.7470 0.7470 0.7470 0.7450
15.944000 0.7450 0.7470 0.7470 0.7440 0.7450
15.974973 0.7470 0.7470 0.7470 0.7450 0.7470
16.006000 0.7470
##END=
