##TITLE=Propyl isothiocyanate
##JCAMP-DX=4.24
##DATA TYPE=INFRARED SPECTRUM
##ORIGIN=EPA-IR VAPOR PHASE LIBRARY
##OWNER=SRD/NIST
Collection (C) 2018 copyright by the U.S. Secretary of Commerce
on behalf of the United States of America. All rights reserved.
##CAS REGISTRY NO=628-30-8
##MOLFORM=C 4 H 7 N S
##$NIST SOURCE=MSDC-IR
##STATE=gas
##XUNITS=1/CM
##YUNITS=ABSORBANCE
##XFACTOR=1.
##YFACTOR=0.001
##DELTAX=1.92898
##FIRSTX=549.8
##LASTX=4000.7
##FIRSTY=38.372
##MAXX=4000.7
##MINX=549.759
##MAXY=1.13316
##MINY=0
##NPOINTS=1790
##XYDATA=(X++(Y..Y))
549.759 38.372 36.982 35.772 34.422 32.742 31.222 29.592 27.952 26.362 24.862
569.049 23.542 22.272 20.852 19.662 18.682 17.792 17.072 16.302 15.552 14.922
588.339 14.472 14.002 13.532 13.112 12.672 12.392 12.192 11.862 11.542 11.292
607.628 11.042 10.762 10.552 10.422 10.132 9.802 9.672 9.502 9.272 9.032
626.918 8.852 8.652 8.522 8.542 8.492 8.542 8.602 8.632 8.872 8.952
646.208 9.062 9.412 9.612 9.842 10.032 10.242 10.422 10.422 10.342 10.132
665.498 9.922 9.762 9.542 9.262 8.932 8.602 8.412 8.282 8.282 8.432
684.787 8.732 9.142 9.632 10.182 10.912 11.652 12.162 12.742 13.242 13.632
704.077 13.872 13.902 13.792 13.542 13.182 12.752 12.372 11.852 11.252 10.802
723.367 10.402 9.912 9.352 8.802 8.272 7.772 7.262 6.612 6.022 5.612
742.657 5.352 5.092 4.932 4.902 4.842 4.822 4.782 4.782 4.922 5.182
761.947 5.322 5.552 6.012 6.412 6.812 7.422 8.212 9.342 10.882 12.772
781.236 15.042 17.572 20.092 22.252 24.072 25.432 26.132 26.442 26.602 26.332
800.526 25.612 24.602 23.112 21.232 19.102 16.902 14.882 12.992 11.372 10.182
819.816 9.222 8.382 7.752 7.262 6.962 6.802 6.752 6.932 7.122 7.452
839.106 7.952 8.542 9.192 9.642 10.112 10.532 10.772 11.042 11.292 11.462
858.395 11.592 11.702 11.762 11.712 11.642 11.382 11.142 11.072 10.952 11.072
877.685 11.432 11.872 12.212 12.512 12.872 13.212 13.352 13.422 13.712 13.892
896.975 13.742 13.602 13.342 12.822 12.422 12.052 11.592 11.192 10.922 10.502
916.265 10.052 9.742 9.482 9.242 8.952 8.722 8.652 8.482 8.142 7.902
935.555 7.652 7.402 7.182 6.862 6.612 6.402 6.152 5.902 5.742 5.602
954.844 5.312 5.072 4.892 4.672 4.652 4.552 4.272 4.062 4.002 4.052
974.134 3.892 3.712 3.672 3.652 3.652 3.682 3.662 3.692 3.712 3.642
993.424 3.662 3.812 3.952 4.222 4.502 4.642 4.952 5.272 5.232 5.282
1012.714 5.602 5.802 5.942 6.292 6.722 6.742 6.712 6.912 6.952 6.922
1032.003 6.972 6.982 7.052 7.192 7.322 7.522 7.792 8.232 8.532 8.762
1051.293 9.192 9.452 9.822 10.242 10.532 10.852 11.532 12.032 12.022 12.412
1070.583 12.932 13.282 13.332 13.342 13.552 13.612 13.482 13.382 13.132 12.952
1089.873 12.882 12.592 12.302 12.182 11.962 11.682 11.542 11.482 11.382 11.392
1109.163 11.432 11.532 11.552 11.592 11.572 11.402 11.512 11.482 11.152 10.622
1128.452 10.142 9.732 9.242 8.912 8.622 8.172 7.932 7.992 7.972 7.862
1147.742 7.952 8.102 8.142 8.112 8.092 8.152 8.262 8.362 8.532 8.482
1167.032 8.412 8.582 8.552 8.522 8.632 8.702 8.702 8.732 8.852 8.892
1186.322 8.752 8.852 8.902 8.872 9.132 9.212 9.102 9.182 9.172 8.992
1205.611 8.982 9.142 9.232 9.022 8.842 8.702 8.482 8.182 7.962 7.982
1224.901 8.112 8.262 8.212 8.302 8.412 8.632 9.042 9.382 9.682 9.932
1244.191 10.352 10.582 10.742 11.022 11.212 11.442 11.772 12.112 12.362 12.812
1263.481 13.262 13.582 13.982 14.432 14.962 15.602 16.492 17.572 18.942 20.542
1282.771 22.422 24.682 27.322 30.202 33.072 35.582 37.322 38.322 38.792 39.182
1302.060 39.722 40.102 39.992 39.222 37.792 36.212 35.102 34.782 35.512 37.432
1321.350 40.612 45.222 51.522 59.812 70.262 82.662 96.342 109.762 121.172 129.362
1340.640 134.712 139.132 143.752 147.282 150.222 152.402 149.822 141.712 131.182 120.902
1359.930 110.822 100.362 89.872 80.222 72.002 65.002 58.642 52.682 47.602 43.942
1379.219 41.622 40.182 38.982 37.642 36.142 34.882 33.972 33.192 33.012 32.682
1398.509 30.902 27.812 24.262 21.002 18.532 16.952 16.022 15.462 15.092 14.812
1417.799 14.652 14.612 14.602 14.662 14.862 15.202 15.742 16.462 17.472 18.942
1437.089 21.152 24.202 28.472 34.222 41.382 49.452 57.452 63.922 67.912 69.442
1456.378 69.892 71.602 74.112 74.892 74.162 72.352 67.852 60.502 51.542 42.762
1475.668 35.922 30.962 27.242 24.102 21.302 18.842 16.692 14.932 13.532 12.352
1494.958 11.442 10.702 10.112 9.622 9.122 8.702 8.312 7.952 7.662 7.372
1514.248 7.112 6.792 6.512 6.322 6.042 5.802 5.622 5.422 5.192 4.952
1533.538 4.742 4.572 4.442 4.272 4.112 3.962 3.822 3.622 3.452 3.392
1552.827 3.332 3.242 3.112 3.092 3.102 3.022 2.952 2.922 2.892 2.912
1572.117 2.932 2.952 2.942 2.902 2.932 2.962 2.972 2.992 3.062 3.092
1591.407 3.082 3.072 3.102 3.162 3.112 3.072 3.072 3.052 3.022 3.062
1610.697 3.062 3.062 3.082 3.072 3.082 3.112 3.142 3.132 3.142 3.212
1629.986 3.232 3.232 3.262 3.292 3.342 3.352 3.342 3.312 3.342 3.382
1649.276 3.342 3.332 3.362 3.262 3.162 3.162 3.132 3.032 2.982 2.952
1668.566 2.902 2.882 2.872 2.822 2.772 2.782 2.852 2.842 2.772 2.752
1687.856 2.732 2.692 2.662 2.662 2.652 2.592 2.582 2.582 2.532 2.512
1707.146 2.522 2.492 2.452 2.442 2.432 2.412 2.362 2.272 2.232 2.202
1726.435 2.162 2.172 2.172 2.152 2.132 2.102 2.082 2.082 2.092 2.132
1745.725 2.142 2.142 2.152 2.152 2.192 2.232 2.252 2.262 2.292 2.322
1765.015 2.352 2.392 2.402 2.442 2.502 2.542 2.582 2.572 2.602 2.662
1784.305 2.702 2.762 2.772 2.772 2.812 2.842 2.852 2.882 2.932 2.942
1803.594 2.952 2.982 3.002 3.032 3.092 3.132 3.172 3.212 3.282 3.332
1822.884 3.372 3.442 3.502 3.572 3.682 3.782 3.872 3.982 4.132 4.302
1842.174 4.482 4.622 4.832 5.062 5.242 5.472 5.752 6.042 6.342 6.612
1861.464 6.932 7.272 7.632 8.012 8.412 8.782 9.162 9.572 9.992 10.452
1880.754 10.962 11.452 11.962 12.552 13.142 13.762 14.462 15.192 15.952 16.742
1900.043 17.572 18.482 19.432 20.422 21.442 22.542 23.702 24.872 26.142 27.492
1919.333 28.872 30.322 31.882 33.502 35.152 36.852 38.652 40.542 42.482 44.512
1938.623 46.632 48.872 51.152 53.492 55.962 58.472 61.062 63.762 66.592 69.612
1957.913 72.782 76.092 79.542 83.232 87.152 91.302 95.722 100.462 105.542 111.032
1977.202 116.992 123.542 130.692 138.442 146.942 156.302 166.562 177.802 190.022 203.272
1996.492 217.702 233.322 250.062 267.952 287.052 307.302 328.682 351.122 374.562 398.942
2015.782 424.282 450.782 478.472 507.252 537.562 569.512 602.822 637.712 673.992 711.632
2035.072 750.382 789.652 829.282 868.882 907.752 945.402 981.212 1014.88 1045.28 1071.91
2054.362 1094.13 1111.6 1124.35 1131.45 1133.16 1128.44 1117.53 1101.16 1079.07 1051.17
2073.651 1017.29 977.392 932.512 886.132 839.712 792.902 745.792 698.102 650.192 603.642
2092.941 560.002 519.992 483.862 451.452 421.852 394.482 369.482 347.002 327.302 310.712
2112.231 297.122 286.142 277.482 270.652 265.092 260.522 256.692 253.242 250.012 247.112
2131.521 244.462 242.002 239.752 237.712 235.882 234.172 232.422 230.612 228.832 227.032
2150.810 225.272 223.612 222.062 220.352 218.072 215.002 211.232 206.962 202.072 196.722
2170.100 191.092 185.212 179.112 172.842 166.632 160.592 154.962 149.782 145.012 140.752
2189.390 136.922 133.432 130.192 127.262 124.642 122.102 119.512 116.872 114.052 111.102
2208.680 108.042 104.912 101.772 98.592 95.402 92.212 89.122 86.092 82.972 79.882
2227.970 76.872 73.952 71.072 68.262 65.462 62.672 59.872 57.092 54.412 51.812
2247.259 49.232 46.712 44.312 41.912 39.562 37.322 35.132 33.022 31.062 29.232
2266.549 27.522 25.922 24.442 23.132 21.912 20.782 19.782 18.852 17.982 17.182
2285.839 16.432 15.682 14.992 14.332 13.742 13.182 12.612 12.092 11.552 11.062
2305.129 10.592 10.122 9.662 9.242 8.872 8.532 8.232 7.912 7.592 7.282
2324.418 6.992 6.802 6.612 6.402 6.222 6.052 5.902 5.752 5.642 5.472
2343.708 5.282 5.172 5.032 4.932 4.852 4.692 4.602 4.572 4.472 4.372
2362.998 4.272 4.212 4.162 4.042 3.982 3.952 3.882 3.802 3.742 3.672
2382.288 3.632 3.592 3.492 3.432 3.432 3.442 3.372 3.312 3.312 3.262
2401.578 3.232 3.212 3.202 3.232 3.192 3.142 3.112 3.122 3.152 3.152
2420.867 3.192 3.192 3.152 3.162 3.182 3.182 3.172 3.142 3.122 3.092
2440.157 3.112 3.142 3.152 3.152 3.172 3.162 3.172 3.182 3.222 3.262
2459.447 3.252 3.272 3.332 3.362 3.352 3.342 3.292 3.292 3.292 3.292
2478.737 3.282 3.292 3.312 3.322 3.372 3.392 3.402 3.442 3.472 3.472
2498.026 3.492 3.522 3.592 3.682 3.682 3.672 3.722 3.792 3.852 3.872
2517.316 3.862 3.872 3.952 3.982 3.962 3.942 3.982 4.022 4.052 4.092
2536.606 4.142 4.212 4.262 4.292 4.402 4.502 4.572 4.682 4.732 4.802
2555.896 4.892 4.982 5.082 5.182 5.312 5.422 5.592 5.732 5.852 6.022
2575.186 6.162 6.292 6.452 6.582 6.682 6.772 6.712 6.542 6.392 6.272
2594.475 6.132 5.862 5.572 5.322 5.052 4.782 4.502 4.272 4.082 3.842
2613.765 3.702 3.582 3.432 3.322 3.282 3.192 3.092 3.052 3.032 3.062
2633.055 3.052 3.072 3.152 3.232 3.292 3.352 3.442 3.512 3.632 3.762
2652.345 3.842 4.032 4.272 4.422 4.602 4.852 5.062 5.302 5.612 5.942
2671.634 6.292 6.592 6.892 7.132 7.372 7.682 7.962 8.192 8.432 8.652
2690.924 8.882 9.162 9.422 9.612 9.842 10.132 10.542 10.992 11.392 11.922
2710.214 12.492 12.992 13.502 14.102 14.652 15.122 15.642 16.182 16.592 16.912
2729.504 17.172 17.372 17.492 17.482 17.402 17.272 17.082 16.862 16.592 16.372
2748.794 16.082 15.712 15.452 15.172 14.822 14.552 14.302 14.062 13.822 13.612
2768.083 13.432 13.232 13.002 12.752 12.502 12.302 12.102 11.852 11.632 11.422
2787.373 11.222 11.062 10.932 10.802 10.702 10.612 10.542 10.512 10.562 10.632
2806.663 10.572 10.522 10.572 10.652 10.732 10.802 10.902 11.082 11.202 11.352
2825.953 11.542 11.742 11.962 12.232 12.552 12.982 13.392 13.802 14.352 14.882
2845.242 15.442 16.212 17.092 18.152 19.392 20.822 22.602 24.732 27.262 30.152
2864.532 33.242 36.482 40.022 43.972 48.402 53.372 58.562 63.642 68.412 72.372
2883.822 75.252 77.242 78.302 78.782 78.922 78.492 77.592 75.772 72.762 69.082
2903.112 65.382 62.212 59.722 58.022 57.032 56.692 57.092 58.162 60.012 62.722
2922.401 66.252 70.872 76.582 83.232 90.732 98.742 107.322 116.752 126.822 136.902
2941.691 145.962 153.112 158.032 160.842 162.522 164.222 165.182 164.622 162.622 158.692
2960.981 153.492 148.192 143.782 141.132 140.622 142.202 145.432 148.992 150.062 146.082
2980.271 138.722 132.022 127.522 122.972 117.782 112.632 104.872 93.882 81.502 69.702
2999.561 59.642 51.632 45.312 39.982 35.612 31.982 28.802 26.122 23.912 22.092
3018.850 20.592 19.312 18.222 17.222 16.342 15.582 14.802 14.072 13.342 12.612
3038.140 12.002 11.322 10.572 9.922 9.302 8.792 8.332 7.812 7.322 6.902
3057.430 6.602 6.332 6.052 5.842 5.642 5.442 5.292 5.172 5.132 5.112
3076.720 5.002 4.892 4.832 4.812 4.832 4.772 4.702 4.712 4.672 4.612
3096.009 4.582 4.592 4.592 4.522 4.512 4.502 4.402 4.312 4.312 4.232
3115.299 4.062 4.022 4.032 3.972 3.802 3.652 3.542 3.402 3.282 3.232
3134.589 3.202 3.072 2.912 2.832 2.762 2.632 2.562 2.562 2.542 2.442
3153.879 2.312 2.262 2.232 2.182 2.112 2.142 2.132 2.022 2.042 2.012
3173.169 1.982 1.962 1.962 1.992 1.962 1.882 1.802 1.822 1.842 1.732
3192.458 1.602 1.532 1.552 1.572 1.462 1.381 1.3894 1.338 1.2288 1.1896
3211.748 1.1601 1.0943 1.0314 1.0351 1.0076 0.8932 0.894 0.9288 0.8709 0.8126
3231.038 0.7939 0.815 0.8489 0.7799 0.6945 0.6604 0.7216 0.7849 0.7964 0.7544
3250.328 0.7437 0.6911 0.7031 0.7975 0.7284 0.6423 0.6843 0.7214 0.6778 0.6258
3269.617 0.5794 0.602 0.50198 0.3965 0.3789 0.314 0.388 0.404 0.281 0.269
3288.907 0.249 0.179 0.196 0.157 0.152 0.255 0.228 0.148 0.161 0.153
3308.197 0.094 0.106 0.18 0.267 0.224 0.17 0.192 0.145 0.105 0.042
3327.487 0 0.072 0.109 0.095 0.097 0.139 0.104 0.113 0.208 0.175
3346.777 0.056 0.083 0.134 0.078 0.079 0.138 0.204 0.18 0.146 0.23
3366.066 0.202 0.136 0.212 0.271 0.292 0.288 0.317 0.3 0.308 0.3676
3385.356 0.325 0.275 0.3885 0.3864 0.375 0.4125 0.275 0.297 0.334 0.238
3404.646 0.228 0.287 0.336 0.3782 0.4176 0.4192 0.4317 0.3678 0.301 0.3733
3423.936 0.326 0.299 0.327 0.328 0.304 0.263 0.285 0.239 0.16 0.162
3443.225 0.188 0.162 0.251 0.31 0.3 0.219 0.127 0.232 0.292 0.337
3462.515 0.3531 0.301 0.227 0.166 0.205 0.234 0.23 0.192 0.173 0.178
3481.805 0.163 0.186 0.288 0.328 0.273 0.186 0.117 0.192 0.234 0.169
3501.095 0.137 0.141 0.28 0.304 0.203 0.261 0.195 0.105 0.186 0.185
3520.385 0.162 0.217 0.291 0.323 0.242 0.187 0.25 0.319 0.333 0.264
3539.674 0.235 0.301 0.293 0.214 0.186 0.207 0.143 0.162 0.225 0.178
3558.964 0.167 0.191 0.185 0.247 0.204 0.083 0.192 0.284 0.259 0.204
3578.254 0.171 0.175 0.169 0.157 0.232 0.296 0.233 0.302 0.339 0.298
3597.544 0.341 0.36 0.3859 0.339 0.305 0.3709 0.317 0.282 0.322 0.324
3616.833 0.338 0.319 0.229 0.224 0.254 0.205 0.217 0.254 0.254 0.346
3636.123 0.4113 0.3579 0.284 0.187 0.159 0.169 0.178 0.223 0.207 0.205
3655.413 0.225 0.261 0.259 0.275 0.347 0.305 0.206 0.24 0.3967 0.3947
3674.703 0.4045 0.4339 0.393 0.4209 0.441 0.4769 0.452852 0.3666 0.3589 0.4061
3693.993 0.3861 0.298 0.323 0.45085 0.48154 0.4266 0.45029 0.54232 0.6786 0.6552
3713.282 0.50605 0.49295 0.52157 0.54093 0.51311 0.46617 0.4398 0.3545 0.3661 0.52248
3732.572 0.51168 0.50973 0.5717 0.51651 0.48154 0.5203 0.5633 0.52556 0.47857 0.46663
3751.862 0.50282 0.46982 0.3564 0.460988 0.52547 0.50946 0.52656 0.52401 0.603 0.6809
3771.152 0.6598 0.6193 0.5785 0.50603 0.457309 0.50473 0.597 0.5928 0.6274 0.6316
3790.441 0.6272 0.6557 0.7367 0.736 0.689 0.7772 0.7821 0.7716 0.7817 0.8301
3809.731 0.8345 0.6746 0.6783 0.7434 0.7866 0.8227 0.7679 0.7858 0.8494 0.8873
3829.021 0.8644 0.86 0.9529 0.9533 0.8339 0.7837 0.8177 0.8872 0.9277 0.8513
3848.311 0.8048 0.8058 0.7552 0.8014 0.8661 0.8534 0.9176 0.884 0.795 0.8323
3867.601 0.9218 0.9284 0.8665 0.8552 0.8522 0.7691 0.702 0.7699 0.8634 0.8853
3886.890 0.8515 0.8721 0.9134 0.9634 1.0009 0.9931 0.9587 1.0678 1.0994 0.949
3906.180 0.9428 0.9919 1.0146 1.1386 1.2159 1.214 1.2536 1.3428 1.3456 1.2644
3925.470 1.3115 1.3301 1.2861 1.4097 1.592 1.562 1.522 1.662 1.752 1.802
3944.760 1.812 1.752 1.782 1.822 1.792 1.812 1.932 2.022 2.142 2.092
3964.049 2.022 2.202 2.362 2.352 2.462 2.642 2.752 2.812 2.782 2.772
3983.339 2.782 2.872 3.102 3.112 3.092 3.322 3.482 3.512 3.612 3.672
##END=
