##TITLE=n-BUTYL METHYL SULFIDE
##JCAMP-DX=4.24
##DATA TYPE=INFRARED SPECTRUM
##CLASS=COBLENTZ
##ORIGIN=WYANDOTTE CHEMICALS CORP., WYANDOTTE, MICHIGAN, USA
##OWNER=COBLENTZ SOCIETY
Collection (C) 2018 copyright by the U.S. Secretary of Commerce
on behalf of the United States of America. All rights reserved.
##DATE=Not specified, most likely prior to 1970
##NAMES=butyl methyl sulfide
1-(methylsulfanyl)butane
##CAS REGISTRY NO=628-29-5
##MOLFORM=C5 H12 S
##BP=120-122 C
##SOURCE REFERENCE=COBLENTZ NO. 3840
##$NIST SOURCE=COBLENTZ
##$NIST IMAGE=cob3840
##SPECTROMETER/DATA SYSTEM=Not specified, most likely a prism, grating, or hybrid spectrometer.
##STATE=LIQUID
##PATH LENGTH=0.005 CM
##SAMPLING PROCEDURE=TRANSMISSION
##RESOLUTION=4
##DATA PROCESSING=DIGITIZED BY NIST FROM HARD COPY
##XUNITS=MICROMETERS
##YUNITS=TRANSMITTANCE
##XFACTOR=1.000000
##YFACTOR=1
##DELTAX=000.006184
##FIRSTX=2.031
##LASTX=15.9997
##FIRSTY=0.986
##MAXX=15.9997
##MINX=2.031
##MAXY=0.993
##MINY=0.018
##NPOINTS=2260
##XYDATA=(X++(Y..Y))
2.031000 0.9860 0.9870 0.9890 0.9890 0.9930
2.061932 0.9930 0.9900 0.9890 0.9860 0.9890
2.093000 0.9860 0.9820 0.9810 0.9760 0.9700
2.123932 0.9650 0.9620 0.9610 0.9610 0.9580
2.155000 0.9420 0.9190 0.8890 0.8600 0.8290
2.185932 0.8260 0.8100 0.7950 0.7870 0.7780
2.216000 0.7760 0.7780 0.7810 0.7860 0.7900
2.246932 0.7980 0.8070 0.8170 0.8260 0.8320
2.278000 0.8380 0.8430 0.8460 0.8490 0.8510
2.308932 0.8540 0.8570 0.8620 0.8660 0.8720
2.340000 0.8790 0.8790 0.8750 0.8720 0.8710
2.370932 0.8740 0.8800 0.8820 0.8820 0.8830
2.402000 0.8880 0.8910 0.8910 0.8930 0.8970
2.432932 0.9000 0.9020 0.9020 0.9020 0.8960
2.464000 0.8970 0.9020 0.9030 0.9030 0.9050
2.494932 0.9080 0.9110 0.9110 0.9050 0.9030
2.526000 0.9020 0.9030 0.9060 0.9100 0.9140
2.556932 0.9130 0.9110 0.9130 0.9140 0.9200
2.587000 0.9220 0.9280 0.9300 0.9300 0.9280
2.617932 0.9280 0.9250 0.9250 0.9240 0.9240
2.649000 0.9220 0.9190 0.9170 0.9160 0.9130
2.679932 0.9110 0.9080 0.9050 0.9030 0.9060
2.711000 0.9060 0.9100 0.9110 0.9110 0.9110
2.741932 0.9110 0.9110 0.9080 0.9100 0.9130
2.773000 0.9190 0.9200 0.9200 0.9200 0.9200
2.803932 0.9190 0.9190 0.9190 0.9200 0.9200
2.835000 0.9190 0.9130 0.9110 0.9110 0.9130
2.865932 0.9170 0.9200 0.9240 0.9240 0.9250
2.897000 0.9220 0.9220 0.9200 0.9190 0.9190
2.927932 0.9170 0.9190 0.9190 0.9190 0.9170
2.958000 0.9170 0.9170 0.9170 0.9160 0.9160
2.988932 0.9140 0.9130 0.9110 0.9100 0.9100
3.020000 0.9100 0.9080 0.9060 0.9020 0.8970
3.050932 0.8910 0.8880 0.8860 0.8820 0.8770
3.082000 0.8690 0.8630 0.8550 0.8460 0.8370
3.112932 0.8270 0.8200 0.8130 0.8090 0.8070
3.144000 0.8060 0.8030 0.7980 0.7950 0.7890
3.174932 0.7860 0.7840 0.7820 0.7790 0.7750
3.206000 0.7650 0.7480 0.7450 0.7370 0.7280
3.236932 0.7240 0.7110 0.7000 0.6850 0.6600
3.268000 0.6350 0.6180 0.5840 0.5360 0.4770
3.298932 0.4060 0.3270 0.2430 0.1530 0.0620
3.330000 0.0370 0.0200 0.0180 0.0180 0.0200
3.360932 0.0230 0.0290 0.0310 0.0310 0.0320
3.391000 0.0320 0.0230 0.0230 0.0270 0.0270
3.421932 0.0310 0.0310 0.0270 0.0260 0.0240
3.453000 0.0230 0.0240 0.0310 0.0350 0.0380
3.483932 0.0380 0.0410 0.0480 0.0600 0.0800
3.515000 0.1020 0.1390 0.1900 0.2520 0.3190
3.545932 0.3870 0.4520 0.5110 0.5610 0.5950
3.577000 0.6240 0.6320 0.6550 0.6800 0.7000
3.607932 0.7080 0.7140 0.7190 0.7200 0.7190
3.639000 0.7060 0.7000 0.6960 0.6890 0.6910
3.669932 0.7140 0.7370 0.7550 0.7700 0.7810
3.701000 0.7900 0.7930 0.7920 0.7900 0.7870
3.731932 0.7840 0.7810 0.7780 0.7750 0.7700
3.762000 0.7640 0.7640 0.7650 0.7700 0.7790
3.792932 0.7920 0.8030 0.8100 0.8170 0.8210
3.824000 0.8260 0.8290 0.8320 0.8350 0.8380
3.854932 0.8400 0.8400 0.8430 0.8460 0.8490
3.886000 0.8540 0.8580 0.8550 0.8490 0.8410
3.916932 0.8400 0.8400 0.8400 0.8400 0.8410
3.948000 0.8460 0.8490 0.8510 0.8490 0.8510
3.978932 0.8520 0.8540 0.8570 0.8580 0.8620
4.010000 0.8630 0.8630 0.8630 0.8680 0.8750
4.040932 0.8790 0.8790 0.8790 0.8750 0.8740
4.072000 0.8740 0.8740 0.8750 0.8740 0.8710
4.102932 0.8710 0.8660 0.8690 0.8680 0.8650
4.133000 0.8620 0.8600 0.8550 0.8540 0.8540
4.163932 0.8540 0.8570 0.8570 0.8550 0.8520
4.195000 0.8430 0.8410 0.8350 0.8320 0.8290
4.225932 0.8260 0.8260 0.8230 0.8230 0.8270
4.257000 0.8320 0.8340 0.8370 0.8400 0.8430
4.287932 0.8440 0.8440 0.8460 0.8490 0.8490
4.319000 0.8490 0.8440 0.8440 0.8480 0.8520
4.349932 0.8540 0.8550 0.8540 0.8490 0.8520
4.381000 0.8520 0.8520 0.8520 0.8520 0.8520
4.411932 0.8520 0.8430 0.8400 0.8370 0.8310
4.443000 0.8230 0.8230 0.8260 0.8310 0.8370
4.473932 0.8400 0.8460 0.8490 0.8600 0.8600
4.504000 0.8580 0.8570 0.8550 0.8540 0.8520
4.534932 0.8540 0.8580 0.8660 0.8710 0.8690
4.566000 0.8650 0.8580 0.8570 0.8570 0.8570
4.596932 0.8570 0.8550 0.8540 0.8540 0.8520
4.628000 0.8520 0.8520 0.8490 0.8480 0.8480
4.658932 0.8480 0.8480 0.8480 0.8490 0.8520
4.690000 0.8540 0.8550 0.8550 0.8570 0.8570
4.720932 0.8570 0.8580 0.8600 0.8630 0.8680
4.752000 0.8690 0.8690 0.8690 0.8630 0.8630
4.782932 0.8630 0.8630 0.8630 0.8630 0.8660
4.814000 0.8680 0.8680 0.8710 0.8710 0.8690
4.844932 0.8690 0.8690 0.8690 0.8660 0.8660
4.875000 0.8680 0.8680 0.8660 0.8660 0.8650
4.905932 0.8630 0.8620 0.8600 0.8600 0.8580
4.937000 0.8570 0.8550 0.8550 0.8550 0.8570
4.967932 0.8570 0.8550 0.8540 0.8520 0.8510
4.999000 0.8510 0.8510 0.8510 0.8520 0.8540
5.029932 0.8570 0.8580 0.8620 0.8630 0.8620
5.061000 0.8650 0.8680 0.8710 0.8720 0.8720
5.091932 0.8720 0.8720 0.8710 0.8680 0.8680
5.123000 0.8680 0.8690 0.8710 0.8740 0.8740
5.153932 0.8740 0.8740 0.8740 0.8720 0.8690
5.185000 0.8690 0.8690 0.8740 0.8720 0.8720
5.215932 0.8720 0.8710 0.8680 0.8630 0.8630
5.246000 0.8630 0.8630 0.8630 0.8690 0.8740
5.276932 0.8720 0.8690 0.8680 0.8660 0.8680
5.308000 0.8710 0.8720 0.8740 0.8740 0.8740
5.338932 0.8750 0.8740 0.8690 0.8660 0.8680
5.370000 0.8790 0.8790 0.8740 0.8740 0.8720
5.400932 0.8710 0.8690 0.8690 0.8690 0.8680
5.432000 0.8680 0.8710 0.8720 0.8750 0.8790
5.462932 0.8740 0.8710 0.8710 0.8740 0.8740
5.494000 0.8720 0.8720 0.8690 0.8710 0.8660
5.524932 0.8710 0.8660 0.8630 0.8630 0.8630
5.556000 0.8630 0.8690 0.8690 0.8660 0.8660
5.586932 0.8660 0.8660 0.8630 0.8620 0.8630
5.617000 0.8620 0.8600 0.8580 0.8570 0.8550
5.647932 0.8600 0.8600 0.8600 0.8580 0.8570
5.679000 0.8570 0.8520 0.8550 0.8570 0.8550
5.709932 0.8550 0.8520 0.8550 0.8540 0.8520
5.741000 0.8510 0.8510 0.8490 0.8460 0.8440
5.771932 0.8430 0.8400 0.8370 0.8380 0.8400
5.803000 0.8460 0.8490 0.8440 0.8430 0.8410
5.833932 0.8380 0.8400 0.8370 0.8340 0.8310
5.865000 0.8270 0.8270 0.8240 0.8230 0.8230
5.895932 0.8210 0.8210 0.8210 0.8290 0.8290
5.927000 0.8260 0.8170 0.8170 0.8180 0.8260
5.957932 0.8240 0.8230 0.8230 0.8200 0.8200
5.989000 0.8180 0.8170 0.8150 0.8130 0.8170
6.019932 0.8230 0.8210 0.8200 0.8130 0.8120
6.050000 0.8120 0.8100 0.8150 0.8150 0.8120
6.080932 0.8090 0.8070 0.8030 0.8010 0.7980
6.112000 0.7950 0.7930 0.7920 0.7900 0.7890
6.142932 0.7890 0.7870 0.7840 0.7820 0.7780
6.174000 0.7720 0.7700 0.7700 0.7790 0.7790
6.204932 0.7750 0.7750 0.7730 0.7720 0.7680
6.236000 0.7620 0.7610 0.7640 0.7640 0.7640
6.266932 0.7640 0.7620 0.7620 0.7610 0.7590
6.298000 0.7580 0.7580 0.7560 0.7560 0.7550
6.328932 0.7530 0.7530 0.7510 0.7500 0.7480
6.360000 0.7480 0.7470 0.7450 0.7440 0.7340
6.390932 0.7280 0.7270 0.7280 0.7300 0.7310
6.421000 0.7310 0.7310 0.7310 0.7300 0.7300
6.451932 0.7280 0.7240 0.7220 0.7200 0.7190
6.483000 0.7190 0.7190 0.7170 0.7130 0.7110
6.513932 0.7080 0.7000 0.7000 0.6970 0.6960
6.545000 0.6930 0.6910 0.6880 0.6830 0.6800
6.575932 0.6790 0.6770 0.6740 0.6710 0.6620
6.607000 0.6490 0.6370 0.6320 0.6270 0.6230
6.637932 0.6130 0.6030 0.5860 0.5790 0.5760
6.669000 0.5640 0.5560 0.5340 0.5110 0.4860
6.699932 0.4660 0.4510 0.4240 0.4010 0.3780
6.731000 0.3560 0.3270 0.2860 0.2210 0.1670
6.761932 0.0970 0.0600 0.0400 0.0370 0.0370
6.792000 0.0400 0.0460 0.0480 0.0480 0.0490
6.822932 0.0490 0.0490 0.0510 0.0520 0.0540
6.854000 0.0580 0.0600 0.0620 0.0600 0.0550
6.884932 0.0510 0.0430 0.0400 0.0380 0.0410
6.916000 0.0410 0.0490 0.0490 0.0410 0.0380
6.946932 0.0380 0.0400 0.0410 0.0410 0.0400
6.978000 0.0410 0.0510 0.0570 0.0720 0.0910
7.008932 0.1130 0.1360 0.1620 0.1900 0.2180
7.040000 0.2460 0.2740 0.2970 0.3250 0.3510
7.070932 0.3700 0.3920 0.4170 0.4260 0.4400
7.102000 0.4520 0.4630 0.4710 0.4790 0.4880
7.132932 0.4890 0.4910 0.4930 0.4910 0.4890
7.163000 0.4850 0.4800 0.4740 0.4650 0.4290
7.193932 0.3960 0.3270 0.2600 0.2520 0.2240
7.225000 0.1790 0.1760 0.1790 0.2040 0.2550
7.255932 0.3170 0.3680 0.4120 0.4460 0.4740
7.287000 0.4960 0.5050 0.5140 0.5200 0.5220
7.317932 0.5240 0.5270 0.5270 0.5240 0.5220
7.349000 0.5200 0.5200 0.5190 0.5160 0.5160
7.379932 0.5170 0.5200 0.5240 0.5280 0.5310
7.411000 0.5330 0.5340 0.5340 0.5330 0.5300
7.441932 0.5300 0.5310 0.5330 0.5360 0.5420
7.473000 0.5500 0.5650 0.5760 0.5840 0.5890
7.503932 0.5890 0.5840 0.5780 0.5670 0.5530
7.534000 0.5360 0.5130 0.4910 0.4690 0.4510
7.564932 0.4490 0.4570 0.4720 0.4830 0.4930
7.596000 0.4930 0.4880 0.4620 0.4430 0.4200
7.626932 0.3870 0.3560 0.3270 0.3000 0.2880
7.658000 0.2680 0.2630 0.2710 0.2710 0.2710
7.688932 0.2690 0.2660 0.2620 0.2620 0.2600
7.720000 0.2620 0.2630 0.2680 0.2720 0.2790
7.750932 0.2850 0.2940 0.2990 0.3030 0.3020
7.782000 0.2940 0.2740 0.2460 0.2200 0.1860
7.812932 0.1590 0.1340 0.1080 0.0970 0.0970
7.844000 0.1060 0.1420 0.1670 0.2120 0.2600
7.874932 0.3160 0.3700 0.3960 0.4370 0.4710
7.905000 0.5030 0.5300 0.5510 0.5670 0.5900
7.935932 0.6010 0.6090 0.6180 0.6210 0.6270
7.967000 0.6340 0.6400 0.6440 0.6460 0.6480
7.997932 0.6510 0.6490 0.6440 0.6410 0.6400
8.029000 0.6340 0.6230 0.6170 0.6060 0.5890
8.059932 0.5730 0.5550 0.5250 0.4860 0.4430
8.091000 0.4010 0.3530 0.3110 0.2750 0.2240
8.121932 0.1810 0.1510 0.1420 0.1420 0.1470
8.153000 0.1670 0.1920 0.2310 0.2710 0.3140
8.183932 0.3620 0.4130 0.4620 0.5030 0.5330
8.215000 0.5470 0.5650 0.5860 0.5980 0.6060
8.245932 0.6100 0.6130 0.6150 0.6180 0.6200
8.277000 0.6200 0.6180 0.6130 0.6090 0.6090
8.307932 0.6120 0.6180 0.6230 0.6290 0.6340
8.338000 0.6440 0.6490 0.6490 0.6440 0.6400
8.368932 0.6320 0.6200 0.6180 0.6130 0.6130
8.400000 0.6230 0.6370 0.6490 0.6550 0.6600
8.430932 0.6650 0.6720 0.6850 0.6960 0.6990
8.462000 0.7030 0.7100 0.7190 0.7250 0.7310
8.492932 0.7360 0.7390 0.7410 0.7450 0.7480
8.524000 0.7550 0.7590 0.7620 0.7650 0.7680
8.554932 0.7700 0.7730 0.7730 0.7750 0.7760
8.586000 0.7780 0.7810 0.7890 0.7900 0.7950
8.616932 0.7960 0.7960 0.7980 0.8000 0.8000
8.648000 0.8010 0.8030 0.8040 0.8070 0.8090
8.678932 0.8090 0.8120 0.8120 0.8130 0.8130
8.709000 0.8130 0.8150 0.8170 0.8180 0.8170
8.739932 0.8130 0.8120 0.8150 0.8150 0.8180
8.771000 0.8180 0.8180 0.8180 0.8180 0.8180
8.801932 0.8180 0.8180 0.8170 0.8150 0.8120
8.833000 0.8100 0.8100 0.8090 0.8070 0.8060
8.863932 0.8060 0.8040 0.8030 0.8030 0.8000
8.895000 0.7950 0.7870 0.7820 0.7790 0.7750
8.925932 0.7730 0.7700 0.7680 0.7640 0.7580
8.957000 0.7510 0.7450 0.7390 0.7310 0.7200
8.987932 0.7100 0.6960 0.6750 0.6430 0.6270
9.019000 0.6030 0.5820 0.5670 0.5500 0.5370
9.049932 0.5170 0.5000 0.4940 0.4940 0.5020
9.080000 0.5170 0.5280 0.5450 0.5530 0.5700
9.110932 0.5810 0.5890 0.6000 0.6030 0.6120
9.142000 0.6170 0.6150 0.6120 0.6010 0.5960
9.172932 0.5840 0.5670 0.5510 0.5310 0.5110
9.204000 0.4940 0.4790 0.4690 0.4650 0.4650
9.234932 0.4720 0.4940 0.5170 0.5340 0.5510
9.266000 0.5650 0.5810 0.5950 0.6070 0.6200
9.296932 0.6320 0.6410 0.6510 0.6570 0.6620
9.328000 0.6630 0.6650 0.6720 0.6800 0.6820
9.358932 0.6850 0.6850 0.6850 0.6830 0.6820
9.390000 0.6800 0.6790 0.6740 0.6690 0.6650
9.420932 0.6600 0.6550 0.6520 0.6490 0.6480
9.451000 0.6440 0.6400 0.6400 0.6370 0.6380
9.481932 0.6400 0.6380 0.6380 0.6370 0.6370
9.513000 0.6480 0.6580 0.6680 0.6820 0.6910
9.543932 0.6970 0.7030 0.7100 0.7200 0.7300
9.575000 0.7330 0.7340 0.7410 0.7410 0.7480
9.605932 0.7530 0.7560 0.7590 0.7610 0.7610
9.637000 0.7610 0.7610 0.7620 0.7640 0.7650
9.667932 0.7680 0.7700 0.7700 0.7670 0.7640
9.699000 0.7620 0.7610 0.7620 0.7670 0.7700
9.729932 0.7670 0.7650 0.7650 0.7650 0.7620
9.761000 0.7620 0.7610 0.7590 0.7580 0.7560
9.791932 0.7560 0.7550 0.7510 0.7500 0.7480
9.822000 0.7450 0.7420 0.7390 0.7330 0.7300
9.852932 0.7280 0.7270 0.7270 0.7240 0.7200
9.884000 0.7190 0.7140 0.7060 0.7030 0.6990
9.914932 0.6970 0.6960 0.6940 0.6940 0.6910
9.946000 0.6880 0.6820 0.6750 0.6710 0.6690
9.976932 0.6660 0.6600 0.6570 0.6550 0.6540
10.008000 0.6520 0.6510 0.6520 0.6540 0.6580
10.038932 0.6620 0.6620 0.6600 0.6600 0.6550
10.070000 0.6520 0.6550 0.6540 0.6520 0.6480
10.100932 0.6430 0.6400 0.6320 0.6230 0.6120
10.132000 0.6030 0.5930 0.5860 0.5780 0.5730
10.162932 0.5580 0.5410 0.5280 0.5170 0.5050
10.193000 0.4860 0.4660 0.4510 0.4380 0.4270
10.223932 0.4200 0.4130 0.4060 0.4010 0.3960
10.255000 0.3870 0.3700 0.3610 0.3530 0.3440
10.285932 0.3270 0.3170 0.3030 0.2910 0.2790
10.317000 0.2720 0.2630 0.2540 0.2370 0.2240
10.347932 0.2180 0.2120 0.2070 0.2040 0.2030
10.379000 0.2010 0.2010 0.1960 0.1950 0.1900
10.409932 0.1870 0.1840 0.1820 0.1780 0.1760
10.441000 0.1760 0.1760 0.1760 0.1760 0.1780
10.471932 0.1810 0.1840 0.1900 0.2010 0.2070
10.503000 0.2260 0.2460 0.2580 0.2850 0.3030
10.533932 0.3270 0.3560 0.3700 0.3960 0.4260
10.564000 0.4490 0.4680 0.4850 0.4990 0.5130
10.594932 0.5270 0.5450 0.5670 0.5860 0.5900
10.626000 0.6000 0.6070 0.6200 0.6310 0.6340
10.656932 0.6430 0.6510 0.6570 0.6650 0.6690
10.688000 0.6710 0.6720 0.6800 0.6910 0.6910
10.718932 0.6930 0.6970 0.7000 0.7020 0.7050
10.750000 0.7060 0.7080 0.7100 0.7110 0.7140
10.780932 0.7190 0.7200 0.7220 0.7220 0.7200
10.812000 0.7190 0.7140 0.7140 0.7110 0.7100
10.842932 0.7080 0.7060 0.7050 0.7020 0.6970
10.874000 0.6940 0.6890 0.6830 0.6800 0.6790
10.904932 0.6740 0.6690 0.6660 0.6650 0.6570
10.936000 0.6550 0.6550 0.6550 0.6550 0.6570
10.966932 0.6570 0.6580 0.6600 0.6620 0.6630
10.997000 0.6630 0.6650 0.6660 0.6680 0.6690
11.027932 0.6690 0.6660 0.6630 0.6570 0.6520
11.059000 0.6460 0.6380 0.6290 0.6240 0.6200
11.089932 0.6150 0.6130 0.6120 0.6100 0.6090
11.121000 0.6070 0.6070 0.6070 0.6090 0.6100
11.151932 0.6130 0.6180 0.6200 0.6150 0.6130
11.183000 0.6130 0.6120 0.6100 0.6100 0.6120
11.213932 0.6170 0.6210 0.6270 0.6340 0.6400
11.245000 0.6440 0.6520 0.6580 0.6630 0.6690
11.275932 0.6740 0.6820 0.6890 0.6940 0.6960
11.307000 0.6990 0.7000 0.7000 0.7000 0.7000
11.337932 0.7000 0.6990 0.6990 0.6970 0.6960
11.368000 0.6940 0.6880 0.6790 0.6680 0.6620
11.398932 0.6540 0.6510 0.6440 0.6380 0.6370
11.430000 0.6370 0.6380 0.6480 0.6520 0.6600
11.460932 0.6650 0.6710 0.6790 0.6830 0.6890
11.492000 0.6960 0.7000 0.7060 0.7110 0.7140
11.522932 0.7190 0.7240 0.7300 0.7310 0.7340
11.554000 0.7370 0.7390 0.7450 0.7480 0.7500
11.584932 0.7530 0.7560 0.7590 0.7640 0.7650
11.616000 0.7650 0.7670 0.7700 0.7720 0.7750
11.646932 0.7790 0.7810 0.7840 0.7890 0.7900
11.678000 0.7950 0.7950 0.7920 0.7920 0.7920
11.708932 0.7920 0.7920 0.7930 0.7950 0.7960
11.739000 0.8000 0.8010 0.8010 0.8030 0.8030
11.769932 0.8040 0.8060 0.8060 0.8040 0.8040
11.801000 0.8010 0.8010 0.8030 0.8030 0.8060
11.831932 0.8090 0.8100 0.8120 0.8130 0.8150
11.863000 0.8150 0.8130 0.8070 0.8070 0.8090
11.893932 0.8120 0.8170 0.8150 0.8100 0.8120
11.925000 0.8130 0.8120 0.8100 0.8090 0.8070
11.955932 0.8070 0.8090 0.8090 0.8120 0.8120
11.987000 0.8130 0.8130 0.8150 0.8130 0.8150
12.017932 0.8150 0.8150 0.8150 0.8150 0.8150
12.049000 0.8130 0.8130 0.8130 0.8130 0.8130
12.079932 0.8130 0.8130 0.8120 0.8120 0.8130
12.110000 0.8130 0.8120 0.8120 0.8090 0.8090
12.140932 0.8090 0.8090 0.8100 0.8100 0.8100
12.172000 0.8100 0.8100 0.8100 0.8100 0.8100
12.202932 0.8100 0.8100 0.8100 0.8100 0.8100
12.234000 0.8100 0.8100 0.8090 0.8090 0.8060
12.264932 0.8060 0.8060 0.8040 0.8030 0.8010
12.296000 0.8010 0.8000 0.7960 0.7930 0.7900
12.326932 0.7890 0.7890 0.7870 0.7860 0.7860
12.358000 0.7840 0.7840 0.7820 0.7820 0.7810
12.388932 0.7760 0.7760 0.7730 0.7730 0.7730
12.420000 0.7730 0.7720 0.7700 0.7680 0.7680
12.450932 0.7670 0.7640 0.7610 0.7590 0.7590
12.481000 0.7590 0.7560 0.7550 0.7500 0.7440
12.511932 0.7410 0.7390 0.7330 0.7310 0.7270
12.543000 0.7250 0.7240 0.7130 0.7020 0.6970
12.573932 0.6890 0.6860 0.6830 0.6770 0.6720
12.605000 0.6660 0.6570 0.6490 0.6380 0.6240
12.635932 0.6130 0.6030 0.5920 0.5810 0.5670
12.667000 0.5530 0.5370 0.5270 0.5190 0.5130
12.697932 0.5030 0.4990 0.4930 0.4890 0.4880
12.729000 0.4890 0.4970 0.5030 0.5110 0.5140
12.759932 0.5190 0.5240 0.5310 0.5420 0.5500
12.791000 0.5610 0.5730 0.5860 0.5930 0.6010
12.821932 0.6090 0.6180 0.6260 0.6340 0.6400
12.852000 0.6430 0.6480 0.6520 0.6520 0.6540
12.882932 0.6570 0.6570 0.6580 0.6620 0.6620
12.914000 0.6580 0.6580 0.6580 0.6600 0.6620
12.944932 0.6620 0.6620 0.6620 0.6620 0.6620
12.976000 0.6620 0.6620 0.6620 0.6600 0.6580
13.006932 0.6570 0.6510 0.6480 0.6490 0.6490
13.038000 0.6460 0.6400 0.6340 0.6290 0.6240
13.068932 0.6200 0.6130 0.6070 0.5980 0.5930
13.100000 0.5920 0.5890 0.5840 0.5790 0.5750
13.130932 0.5700 0.5640 0.5610 0.5560 0.5480
13.162000 0.5420 0.5330 0.5200 0.5110 0.5030
13.192932 0.5020 0.4930 0.4850 0.4820 0.4770
13.223000 0.4690 0.4650 0.4570 0.4490 0.4430
13.253932 0.4340 0.4260 0.4200 0.4120 0.4060
13.285000 0.3920 0.3840 0.3840 0.3810 0.3730
13.315932 0.3670 0.3560 0.3500 0.3420 0.3360
13.347000 0.3270 0.3220 0.3140 0.3100 0.3060
13.377932 0.3060 0.3060 0.3080 0.3080 0.3110
13.409000 0.3160 0.3250 0.3310 0.3390 0.3480
13.439932 0.3620 0.3760 0.3920 0.4070 0.4210
13.471000 0.4350 0.4460 0.4570 0.4660 0.4770
13.501932 0.4880 0.4990 0.5100 0.5160 0.5220
13.533000 0.5280 0.5360 0.5440 0.5480 0.5500
13.563932 0.5530 0.5560 0.5590 0.5610 0.5610
13.595000 0.5610 0.5610 0.5590 0.5580 0.5530
13.625932 0.5500 0.5440 0.5420 0.5390 0.5330
13.656000 0.5300 0.5270 0.5220 0.5160 0.5030
13.686932 0.5000 0.4960 0.4910 0.4890 0.4880
13.718000 0.4830 0.4770 0.4720 0.4710 0.4690
13.748932 0.4650 0.4630 0.4580 0.4520 0.4490
13.780000 0.4440 0.4400 0.4370 0.4320 0.4290
13.810932 0.4270 0.4260 0.4210 0.4200 0.4210
13.842000 0.4230 0.4270 0.4310 0.4350 0.4380
13.872932 0.4380 0.4410 0.4460 0.4510 0.4580
13.904000 0.4660 0.4750 0.4830 0.4930 0.5000
13.934932 0.5080 0.5130 0.5190 0.5240 0.5280
13.966000 0.5310 0.5360 0.5390 0.5420 0.5470
13.996932 0.5510 0.5580 0.5640 0.5680 0.5760
14.027000 0.5860 0.5900 0.5920 0.5930 0.5960
14.057932 0.6010 0.6040 0.6100 0.6170 0.6200
14.089000 0.6230 0.6290 0.6320 0.6350 0.6370
14.119932 0.6400 0.6430 0.6490 0.6510 0.6520
14.151000 0.6550 0.6580 0.6600 0.6570 0.6550
14.181932 0.6570 0.6580 0.6620 0.6630 0.6600
14.213000 0.6570 0.6540 0.6520 0.6490 0.6440
14.243932 0.6430 0.6440 0.6440 0.6310 0.6240
14.275000 0.6200 0.6170 0.6120 0.6070 0.6030
14.305932 0.5960 0.5900 0.5840 0.5790 0.5730
14.337000 0.5670 0.5640 0.5560 0.5510 0.5420
14.367932 0.5330 0.5270 0.5220 0.5170 0.5140
14.398000 0.5130 0.5140 0.5160 0.5170 0.5190
14.428932 0.5200 0.5200 0.5240 0.5300 0.5340
14.460000 0.5390 0.5440 0.5500 0.5560 0.5620
14.490932 0.5670 0.5730 0.5790 0.5840 0.5900
14.522000 0.5960 0.5980 0.6030 0.6100 0.6180
14.552932 0.6230 0.6260 0.6310 0.6350 0.6410
14.584000 0.6490 0.6510 0.6520 0.6580 0.6630
14.614932 0.6710 0.6770 0.6820 0.6860 0.6890
14.646000 0.6910 0.6930 0.6940 0.6970 0.7000
14.676932 0.7020 0.7060 0.7080 0.7080 0.7080
14.708000 0.7100 0.7250 0.7270 0.7280 0.7280
14.738932 0.7280 0.7280 0.7270 0.7250 0.7200
14.769000 0.7220 0.7280 0.7300 0.7310 0.7330
14.799932 0.7340 0.7390 0.7410 0.7410 0.7410
14.831000 0.7410 0.7410 0.7360 0.7360 0.7330
14.861932 0.7360 0.7390 0.7370 0.7390 0.7390
14.893000 0.7390 0.7370 0.7370 0.7370 0.7360
14.923932 0.7360 0.7360 0.7360 0.7360 0.7370
14.955000 0.7370 0.7390 0.7390 0.7370 0.7370
14.985932 0.7360 0.7330 0.7330 0.7310 0.7280
15.017000 0.7270 0.7240 0.7190 0.7160 0.7100
15.047932 0.7060 0.7080 0.7100 0.7110 0.7160
15.079000 0.7160 0.7110 0.7110 0.7110 0.7130
15.109932 0.7240 0.7340 0.7370 0.7390 0.7370
15.140000 0.7370 0.7340 0.7310 0.7310 0.7310
15.170932 0.7310 0.7310 0.7310 0.7310 0.7310
15.202000 0.7340 0.7340 0.7330 0.7310 0.7310
15.232932 0.7300 0.7300 0.7280 0.7280 0.7280
15.264000 0.7270 0.7240 0.7220 0.7220 0.7170
15.294932 0.7160 0.7140 0.7130 0.7130 0.7130
15.326000 0.7110 0.7110 0.7110 0.7100 0.7060
15.356932 0.7030 0.7020 0.6990 0.6940 0.6930
15.388000 0.6910 0.6890 0.6880 0.6860 0.6860
15.418932 0.6850 0.6820 0.6800 0.6790 0.6740
15.450000 0.6720 0.6710 0.6690 0.6680 0.6680
15.480932 0.6710 0.6690 0.6690 0.6690 0.6690
15.511000 0.6710 0.6710 0.6720 0.6750 0.6790
15.541932 0.6790 0.6800 0.6820 0.6820 0.6790
15.573000 0.6770 0.6770 0.6790 0.6790 0.6800
15.603932 0.6820 0.6850 0.6880 0.6880 0.6890
15.635000 0.6910 0.6940 0.6960 0.6970 0.6990
15.665932 0.6990 0.6970 0.6990 0.6990 0.6990
15.697000 0.7000 0.7030 0.7080 0.7080 0.7100
15.727932 0.7100 0.7030 0.7020 0.7020 0.7000
15.759000 0.6990 0.6960 0.6960 0.6940 0.6930
15.789932 0.6930 0.6970 0.7000 0.7020 0.7020
15.821000 0.7020 0.7020 0.7000 0.7000 0.6990
15.851932 0.6960 0.6890 0.6890 0.6990 0.6990
15.883000 0.6990 0.6990 0.6990 0.6940 0.6910
15.913932 0.6860 0.6830 0.6820 0.6820 0.6820
15.944000 0.6830 0.6910 0.6930 0.6930 0.6930
15.974932 0.6930 0.6930 0.6930 0.6940 0.6930
##END=
