##TITLE=METHYL ALCOHOL
##JCAMP-DX=4.24
##DATA TYPE=INFRARED SPECTRUM
##CLASS=COBLENTZ
##OWNER=COBLENTZ SOCIETY
Collection (C) 2018 copyright by the U.S. Secretary of Commerce
on behalf of the United States of America. All rights reserved.
##DATE=1963/02/18
##NAMES=METHANOL
##CAS REGISTRY NO=67-56-1
##MOLFORM=C H4 O
##SOURCE REFERENCE=COBLENTZ NO. 6985
##$NIST SOURCE=COBLENTZ
##$NIST IMAGE=cob6985
##SPECTROMETER/DATA SYSTEM=PERKIN-ELMER 21 (GRATING)
##STATE=GAS (VAPOR)
##PATH LENGTH=10 CM
##SAMPLING PROCEDURE=TRANSMISSION
##RESOLUTION=4
##DATA PROCESSING=DIGITIZED BY NIST FROM HARD COPY
##XUNITS=MICROMETERS
##YUNITS=TRANSMITTANCE
##XFACTOR=1.000000
##YFACTOR=1
##DELTAX=000.004749
##FIRSTX=2.003
##LASTX=15.014
##FIRSTY=0.749
##MAXX=15.014
##MINX=2.003
##MAXY=0.852
##MINY=0.09
##NPOINTS=2741
##XYDATA=(X++(Y..Y))
2.003000 0.7490 0.7490 0.7490 0.7490 0.7490
2.026752 0.7490 0.7490 0.7490 0.7480 0.7480
2.050000 0.7480 0.7480 0.7480 0.7480 0.7480
2.073752 0.7480 0.7480 0.7480 0.7490 0.7490
2.098000 0.7490 0.7500 0.7500 0.7500 0.7520
2.121752 0.7520 0.7540 0.7560 0.7590 0.7590
2.145000 0.7590 0.7590 0.7590 0.7600 0.7600
2.168752 0.7600 0.7610 0.7610 0.7610 0.7610
2.193000 0.7610 0.7620 0.7620 0.7640 0.7640
2.216752 0.7640 0.7650 0.7650 0.7650 0.7660
2.240000 0.7660 0.7660 0.7670 0.7680 0.7680
2.263752 0.7710 0.7710 0.7720 0.7720 0.7720
2.288000 0.7720 0.7710 0.7710 0.7710 0.7690
2.311752 0.7690 0.7670 0.7660 0.7650 0.7650
2.335000 0.7640 0.7640 0.7640 0.7640 0.7640
2.358752 0.7640 0.7640 0.7640 0.7650 0.7660
2.383000 0.7670 0.7680 0.7680 0.7690 0.7690
2.406752 0.7710 0.7720 0.7720 0.7740 0.7750
2.430000 0.7750 0.7750 0.7750 0.7770 0.7770
2.453752 0.7770 0.7770 0.7770 0.7780 0.7780
2.478000 0.7790 0.7790 0.7790 0.7790 0.7790
2.501752 0.7790 0.7790 0.7790 0.7780 0.7780
2.525000 0.7780 0.7780 0.7780 0.7780 0.7780
2.548752 0.7790 0.7790 0.7790 0.7790 0.7790
2.573000 0.7780 0.7780 0.7780 0.7780 0.7780
2.596752 0.7770 0.7770 0.7770 0.7750 0.7750
2.620000 0.7750 0.7750 0.7770 0.7780 0.7790
2.643752 0.7790 0.7790 0.7790 0.7790 0.7790
2.668000 0.7790 0.7790 0.7790 0.7790 0.7790
2.691752 0.7780 0.7770 0.7730 0.7710 0.7670
2.715000 0.7540 0.7150 0.6900 0.6730 0.6620
2.738752 0.6570 0.6500 0.6370 0.6340 0.6320
2.763000 0.6340 0.6370 0.6460 0.6670 0.6870
2.786752 0.7030 0.7210 0.7360 0.7490 0.7520
2.810000 0.7530 0.7590 0.7620 0.7650 0.7660
2.833752 0.7710 0.7750 0.7800 0.7830 0.7840
2.858000 0.7840 0.7850 0.7850 0.7860 0.7860
2.881752 0.7870 0.7870 0.7890 0.7890 0.7890
2.905000 0.7900 0.7900 0.7910 0.7920 0.7920
2.928752 0.7930 0.7930 0.7940 0.7940 0.7960
2.953000 0.7970 0.7980 0.7980 0.7980 0.7990
2.976752 0.7990 0.7990 0.8000 0.8000 0.8000
3.000000 0.8020 0.8030 0.8030 0.8000 0.8000
3.023752 0.8000 0.8000 0.8000 0.8000 0.8000
3.047000 0.8000 0.8000 0.8000 0.8000 0.8020
3.070752 0.8020 0.8020 0.8030 0.8030 0.8040
3.095000 0.8040 0.8040 0.8050 0.8050 0.8050
3.118752 0.8050 0.8050 0.8050 0.8040 0.8040
3.142000 0.8040 0.8030 0.8020 0.8020 0.8020
3.165752 0.8020 0.8000 0.8000 0.8000 0.8000
3.190000 0.8000 0.8000 0.8020 0.8020 0.8030
3.213752 0.8030 0.8020 0.8020 0.8000 0.7990
3.237000 0.7990 0.7940 0.7890 0.7830 0.7770
3.260752 0.7650 0.7530 0.7380 0.7280 0.7150
3.285000 0.7030 0.6900 0.6720 0.6560 0.6410
3.308752 0.6290 0.6110 0.6000 0.5730 0.5570
3.332000 0.5390 0.5240 0.5110 0.5010 0.4760
3.355752 0.4560 0.4380 0.4180 0.4000 0.3870
3.380000 0.3800 0.3710 0.3650 0.3620 0.3610
3.403752 0.3580 0.3580 0.3570 0.3570 0.3580
3.427000 0.3580 0.3590 0.3630 0.3640 0.3740
3.450752 0.3860 0.4040 0.4180 0.4410 0.4570
3.475000 0.4740 0.4860 0.4890 0.4930 0.4950
3.498752 0.4980 0.4990 0.5000 0.5020 0.5050
3.522000 0.5070 0.5110 0.5170 0.5220 0.5300
3.545752 0.5410 0.5470 0.5500 0.5540 0.5670
3.570000 0.5890 0.6110 0.6370 0.6730 0.6990
3.593752 0.7090 0.7210 0.7300 0.7380 0.7490
3.617000 0.7520 0.7530 0.7610 0.7680 0.7740
3.640752 0.7750 0.7780 0.7790 0.7810 0.7830
3.665000 0.7850 0.7870 0.7910 0.7920 0.7940
3.688752 0.7990 0.7990 0.8000 0.8020 0.8020
3.712000 0.8030 0.8030 0.8030 0.8030 0.8030
3.735752 0.8040 0.8040 0.8050 0.8060 0.8080
3.760000 0.8090 0.8090 0.8090 0.8090 0.8090
3.783752 0.8100 0.8110 0.8110 0.8120 0.8120
3.807000 0.8140 0.8140 0.8140 0.8140 0.8150
3.830752 0.8150 0.8160 0.8160 0.8160 0.8160
3.855000 0.8160 0.8160 0.8170 0.8170 0.8170
3.878752 0.8170 0.8180 0.8180 0.8180 0.8180
3.902000 0.8200 0.8200 0.8200 0.8210 0.8210
3.925752 0.8210 0.8220 0.8220 0.8220 0.8220
3.950000 0.8230 0.8230 0.8230 0.8240 0.8240
3.973752 0.8240 0.8240 0.8250 0.8270 0.8280
3.997000 0.8290 0.8290 0.8290 0.8280 0.8280
4.020752 0.8280 0.8280 0.8280 0.8280 0.8280
4.045000 0.8280 0.8280 0.8290 0.8290 0.8290
4.068752 0.8290 0.8290 0.8290 0.8300 0.8300
4.092000 0.8300 0.8300 0.8300 0.8300 0.8310
4.115752 0.8310 0.8300 0.8300 0.8300 0.8300
4.140000 0.8290 0.8290 0.8280 0.8280 0.8280
4.163752 0.8280 0.8270 0.8270 0.8270 0.8270
4.187000 0.8270 0.8280 0.8280 0.8280 0.8290
4.210752 0.8290 0.8290 0.8300 0.8300 0.8300
4.235000 0.8300 0.8310 0.8340 0.8360 0.8370
4.258752 0.8390 0.8390 0.8400 0.8400 0.8400
4.282000 0.8410 0.8410 0.8410 0.8420 0.8420
4.305752 0.8430 0.8450 0.8460 0.8460 0.8470
4.330000 0.8470 0.8470 0.8460 0.8450 0.8430
4.353752 0.8430 0.8430 0.8430 0.8420 0.8410
4.377000 0.8400 0.8390 0.8370 0.8370 0.8370
4.400752 0.8370 0.8360 0.8360 0.8360 0.8370
4.425000 0.8370 0.8370 0.8370 0.8370 0.8370
4.448752 0.8370 0.8360 0.8360 0.8360 0.8360
4.472000 0.8360 0.8360 0.8350 0.8350 0.8360
4.495752 0.8360 0.8360 0.8350 0.8350 0.8350
4.520000 0.8340 0.8340 0.8330 0.8310 0.8310
4.543752 0.8310 0.8310 0.8310 0.8310 0.8310
4.567000 0.8330 0.8330 0.8340 0.8340 0.8340
4.590752 0.8340 0.8340 0.8340 0.8350 0.8350
4.615000 0.8350 0.8360 0.8360 0.8360 0.8360
4.638752 0.8350 0.8350 0.8350 0.8350 0.8350
4.662000 0.8350 0.8360 0.8360 0.8360 0.8360
4.685752 0.8360 0.8360 0.8350 0.8340 0.8340
4.710000 0.8330 0.8310 0.8310 0.8310 0.8300
4.733752 0.8300 0.8300 0.8300 0.8310 0.8310
4.757000 0.8310 0.8310 0.8310 0.8330 0.8310
4.780752 0.8310 0.8300 0.8290 0.8270 0.8200
4.805000 0.8170 0.8140 0.8140 0.8110 0.8080
4.828752 0.8050 0.8040 0.8040 0.8050 0.8060
4.852000 0.8110 0.8150 0.8160 0.8170 0.8170
4.875752 0.8160 0.8140 0.8140 0.8160 0.8170
4.899000 0.8180 0.8200 0.8200 0.8210 0.8210
4.922752 0.8210 0.8210 0.8210 0.8210 0.8210
4.947000 0.8220 0.8220 0.8230 0.8270 0.8270
4.970752 0.8280 0.8290 0.8290 0.8290 0.8290
4.994000 0.8300 0.8310 0.8310 0.8310 0.8310
5.017752 0.8310 0.8310 0.8340 0.8350 0.8360
5.042000 0.8370 0.8390 0.8390 0.8400 0.8400
5.065752 0.8400 0.8400 0.8400 0.8400 0.8400
5.089000 0.8400 0.8400 0.8400 0.8400 0.8400
5.112752 0.8410 0.8410 0.8410 0.8410 0.8410
5.137000 0.8410 0.8410 0.8410 0.8410 0.8420
5.160752 0.8410 0.8400 0.8400 0.8390 0.8390
5.184000 0.8390 0.8390 0.8390 0.8400 0.8400
5.207752 0.8400 0.8400 0.8400 0.8410 0.8410
5.232000 0.8420 0.8420 0.8420 0.8410 0.8410
5.255752 0.8400 0.8400 0.8400 0.8400 0.8410
5.279000 0.8410 0.8420 0.8420 0.8410 0.8410
5.302752 0.8400 0.8400 0.8400 0.8400 0.8400
5.327000 0.8400 0.8400 0.8400 0.8400 0.8410
5.350752 0.8410 0.8410 0.8410 0.8420 0.8420
5.374000 0.8420 0.8420 0.8410 0.8400 0.8400
5.397752 0.8400 0.8400 0.8400 0.8400 0.8400
5.422000 0.8400 0.8400 0.8400 0.8400 0.8400
5.445752 0.8400 0.8410 0.8410 0.8410 0.8410
5.469000 0.8410 0.8410 0.8410 0.8410 0.8410
5.492752 0.8420 0.8420 0.8430 0.8430 0.8420
5.517000 0.8420 0.8420 0.8420 0.8420 0.8420
5.540752 0.8420 0.8420 0.8420 0.8420 0.8420
5.564000 0.8420 0.8430 0.8430 0.8450 0.8450
5.587752 0.8450 0.8450 0.8460 0.8450 0.8450
5.612000 0.8430 0.8430 0.8430 0.8430 0.8430
5.635752 0.8430 0.8430 0.8430 0.8430 0.8430
5.659000 0.8430 0.8450 0.8450 0.8430 0.8420
5.682752 0.8420 0.8420 0.8420 0.8420 0.8420
5.707000 0.8420 0.8420 0.8420 0.8420 0.8420
5.730752 0.8430 0.8430 0.8430 0.8430 0.8430
5.754000 0.8420 0.8420 0.8420 0.8420 0.8420
5.777752 0.8420 0.8420 0.8420 0.8410 0.8410
5.802000 0.8400 0.8390 0.8390 0.8390 0.8390
5.825752 0.8390 0.8400 0.8410 0.8410 0.8420
5.849000 0.8420 0.8420 0.8420 0.8420 0.8420
5.872752 0.8420 0.8420 0.8420 0.8430 0.8430
5.897000 0.8450 0.8450 0.8450 0.8430 0.8430
5.920752 0.8430 0.8430 0.8430 0.8430 0.8430
5.944000 0.8460 0.8460 0.8430 0.8430 0.8420
5.967752 0.8420 0.8420 0.8420 0.8420 0.8420
5.992000 0.8420 0.8420 0.8410 0.8410 0.8410
6.015752 0.8410 0.8410 0.8410 0.8410 0.8410
6.039000 0.8410 0.8410 0.8410 0.8410 0.8420
6.062752 0.8420 0.8420 0.8420 0.8430 0.8430
6.087000 0.8430 0.8430 0.8420 0.8420 0.8420
6.110752 0.8420 0.8420 0.8420 0.8420 0.8420
6.134000 0.8410 0.8400 0.8400 0.8400 0.8400
6.157752 0.8390 0.8390 0.8390 0.8390 0.8390
6.182000 0.8370 0.8370 0.8370 0.8370 0.8360
6.205752 0.8360 0.8360 0.8360 0.8360 0.8360
6.229000 0.8360 0.8360 0.8360 0.8360 0.8350
6.252752 0.8340 0.8310 0.8310 0.8310 0.8300
6.277000 0.8290 0.8290 0.8290 0.8290 0.8290
6.300752 0.8300 0.8300 0.8300 0.8300 0.8300
6.324000 0.8300 0.8290 0.8290 0.8290 0.8290
6.347752 0.8290 0.8290 0.8300 0.8300 0.8290
6.372000 0.8290 0.8280 0.8280 0.8270 0.8270
6.395752 0.8280 0.8280 0.8270 0.8270 0.8270
6.419000 0.8270 0.8270 0.8250 0.8250 0.8240
6.442752 0.8220 0.8210 0.8210 0.8200 0.8180
6.467000 0.8180 0.8180 0.8170 0.8170 0.8180
6.490752 0.8180 0.8180 0.8180 0.8170 0.8150
6.514000 0.8140 0.8120 0.8110 0.8110 0.8100
6.537752 0.8100 0.8100 0.8090 0.8090 0.8090
6.562000 0.8090 0.8090 0.8090 0.8090 0.8090
6.585752 0.8090 0.8060 0.8050 0.8040 0.8040
6.609000 0.8040 0.8030 0.8030 0.8020 0.8020
6.632752 0.8020 0.8020 0.8020 0.8020 0.8020
6.657000 0.8000 0.7990 0.7980 0.7970 0.7960
6.680752 0.7930 0.7920 0.7920 0.7920 0.7910
6.704000 0.7910 0.7900 0.7900 0.7890 0.7870
6.727752 0.7860 0.7850 0.7840 0.7810 0.7780
6.751000 0.7730 0.7670 0.7610 0.7590 0.7550
6.774752 0.7540 0.7540 0.7540 0.7550 0.7550
6.799000 0.7560 0.7590 0.7590 0.7600 0.7600
6.822752 0.7610 0.7620 0.7650 0.7650 0.7650
6.846000 0.7650 0.7640 0.7620 0.7600 0.7590
6.869752 0.7550 0.7230 0.7180 0.7180 0.7300
6.894000 0.7430 0.7560 0.7740 0.7800 0.7860
6.917752 0.7870 0.7860 0.7850 0.7810 0.7780
6.941000 0.7750 0.7740 0.7730 0.7710 0.7690
6.964752 0.7680 0.7670 0.7650 0.7640 0.7620
6.989000 0.7620 0.7600 0.7580 0.7560 0.7560
7.012752 0.7550 0.7540 0.7540 0.7530 0.7530
7.036000 0.7520 0.7500 0.7500 0.7500 0.7500
7.059752 0.7480 0.7460 0.7420 0.7400 0.7370
7.084000 0.7360 0.7350 0.7360 0.7370 0.7370
7.107752 0.7370 0.7370 0.7370 0.7370 0.7350
7.131000 0.7300 0.7240 0.7180 0.7210 0.7210
7.154752 0.7220 0.7220 0.7220 0.7220 0.7220
7.179000 0.7220 0.7210 0.7210 0.7190 0.7180
7.202752 0.7180 0.7180 0.7180 0.7180 0.7170
7.226000 0.7170 0.7170 0.7170 0.7150 0.7130
7.249752 0.7110 0.7100 0.7100 0.7090 0.7060
7.274000 0.7050 0.7040 0.7030 0.6990 0.6980
7.297752 0.6960 0.6940 0.6960 0.6970 0.6980
7.321000 0.7000 0.7020 0.7020 0.7020 0.7020
7.344752 0.7000 0.6980 0.6960 0.6920 0.6910
7.369000 0.6900 0.6900 0.6900 0.6900 0.6900
7.392752 0.6910 0.6920 0.6940 0.6940 0.6930
7.416000 0.6920 0.6860 0.6820 0.6670 0.6670
7.439752 0.6720 0.6840 0.6850 0.6880 0.6920
7.464000 0.6940 0.6960 0.6980 0.7020 0.7030
7.487752 0.7050 0.7070 0.7090 0.7090 0.7070
7.511000 0.6980 0.6910 0.6870 0.6850 0.6860
7.534752 0.6900 0.6910 0.6920 0.6940 0.6940
7.559000 0.6940 0.6940 0.6930 0.6910 0.6900
7.582752 0.6880 0.6870 0.6870 0.6880 0.6910
7.606000 0.6930 0.7020 0.7030 0.7040 0.7060
7.629752 0.7110 0.7110 0.7120 0.7120 0.7120
7.654000 0.7120 0.7120 0.7120 0.7130 0.7130
7.677752 0.7160 0.7210 0.7220 0.7230 0.7240
7.701000 0.7250 0.7270 0.7290 0.7300 0.7330
7.724752 0.7340 0.7360 0.7370 0.7370 0.7380
7.749000 0.7380 0.7400 0.7410 0.7430 0.7470
7.772752 0.7480 0.7490 0.7500 0.7530 0.7540
7.796000 0.7560 0.7590 0.7600 0.7600 0.7610
7.819752 0.7610 0.7610 0.7610 0.7610 0.7610
7.844000 0.7610 0.7610 0.7620 0.7620 0.7640
7.867752 0.7640 0.7640 0.7650 0.7650 0.7650
7.891000 0.7660 0.7660 0.7660 0.7660 0.7660
7.914752 0.7660 0.7660 0.7660 0.7660 0.7660
7.939000 0.7660 0.7650 0.7640 0.7620 0.7610
7.962752 0.7610 0.7610 0.7610 0.7610 0.7610
7.986000 0.7610 0.7620 0.7620 0.7640 0.7650
8.009752 0.7650 0.7660 0.7660 0.7660 0.7660
8.034000 0.7660 0.7670 0.7670 0.7690 0.7710
8.057752 0.7720 0.7740 0.7750 0.7750 0.7750
8.081000 0.7750 0.7750 0.7750 0.7740 0.7740
8.104752 0.7740 0.7750 0.7750 0.7770 0.7780
8.129000 0.7780 0.7780 0.7780 0.7790 0.7790
8.152752 0.7790 0.7800 0.7810 0.7810 0.7810
8.176000 0.7800 0.7790 0.7780 0.7780 0.7780
8.199752 0.7780 0.7780 0.7790 0.7800 0.7800
8.224000 0.7800 0.7810 0.7810 0.7810 0.7810
8.247752 0.7810 0.7810 0.7810 0.7810 0.7810
8.271000 0.7810 0.7800 0.7800 0.7800 0.7810
8.294752 0.7810 0.7830 0.7840 0.7850 0.7850
8.319000 0.7850 0.7860 0.7860 0.7870 0.7890
8.342752 0.7890 0.7900 0.7910 0.7910 0.7920
8.366000 0.7940 0.7960 0.7980 0.8020 0.8020
8.389752 0.8030 0.8040 0.8040 0.8040 0.8050
8.414000 0.8050 0.8050 0.8060 0.8060 0.8060
8.437752 0.8080 0.8080 0.8080 0.8080 0.8090
8.461000 0.8090 0.8100 0.8110 0.8110 0.8120
8.484752 0.8120 0.8120 0.8120 0.8140 0.8140
8.509000 0.8140 0.8150 0.8150 0.8150 0.8150
8.532752 0.8150 0.8150 0.8160 0.8160 0.8170
8.556000 0.8170 0.8170 0.8170 0.8170 0.8170
8.579752 0.8180 0.8180 0.8180 0.8180 0.8200
8.603000 0.8200 0.8200 0.8200 0.8180 0.8180
8.626752 0.8180 0.8170 0.8170 0.8170 0.8170
8.651000 0.8180 0.8180 0.8170 0.8160 0.8160
8.674752 0.8150 0.8150 0.8150 0.8150 0.8150
8.698000 0.8150 0.8150 0.8160 0.8160 0.8150
8.721752 0.8150 0.8160 0.8150 0.8140 0.8120
8.746000 0.8120 0.8110 0.8100 0.8100 0.8100
8.769752 0.8100 0.8090 0.8090 0.8090 0.8080
8.793000 0.8080 0.8080 0.8080 0.8080 0.8060
8.816752 0.8060 0.8060 0.8080 0.8080 0.8080
8.841000 0.8080 0.8080 0.8080 0.8080 0.8080
8.864752 0.8080 0.8080 0.8080 0.8060 0.8060
8.888000 0.8060 0.8060 0.8060 0.8060 0.8060
8.911752 0.8050 0.8050 0.8050 0.8050 0.8050
8.936000 0.8040 0.8040 0.8040 0.8030 0.8020
8.959752 0.8020 0.8000 0.7990 0.7980 0.7970
8.983000 0.7970 0.7960 0.7930 0.7910 0.7900
9.006752 0.7870 0.7870 0.7860 0.7850 0.7850
9.031000 0.7850 0.7850 0.7850 0.7850 0.7850
9.054752 0.7850 0.7840 0.7830 0.7810 0.7810
9.078000 0.7800 0.7800 0.7790 0.7790 0.7790
9.101752 0.7790 0.7790 0.7790 0.7790 0.7790
9.126000 0.7790 0.7790 0.7780 0.7780 0.7780
9.149752 0.7770 0.7770 0.7750 0.7740 0.7740
9.173000 0.7730 0.7720 0.7710 0.7710 0.7710
9.196752 0.7710 0.7710 0.7710 0.7690 0.7670
9.221000 0.7650 0.7620 0.7590 0.7540 0.7520
9.244752 0.7500 0.7350 0.7240 0.7210 0.7100
9.268000 0.6990 0.6920 0.6840 0.6720 0.6670
9.291752 0.6560 0.6510 0.6300 0.6120 0.6040
9.316000 0.5850 0.5620 0.5420 0.5260 0.5110
9.339752 0.4700 0.4550 0.4310 0.4140 0.3920
9.363000 0.3710 0.3590 0.3430 0.3200 0.3090
9.386752 0.3000 0.2780 0.2620 0.2520 0.2330
9.411000 0.2210 0.2100 0.2010 0.1880 0.1780
9.434752 0.1710 0.1650 0.1560 0.1510 0.1500
9.458000 0.1430 0.1400 0.1370 0.1310 0.1280
9.481752 0.1230 0.1210 0.1200 0.1190 0.1170
9.506000 0.1160 0.1160 0.1160 0.1170 0.1190
9.529752 0.1200 0.1230 0.1320 0.1400 0.1500
9.553000 0.1530 0.1600 0.1740 0.1810 0.2010
9.576752 0.2090 0.2200 0.2310 0.2410 0.2520
9.601000 0.2640 0.2890 0.3090 0.3300 0.3500
9.624752 0.3620 0.3840 0.4110 0.4250 0.4410
9.648000 0.4550 0.4620 0.4640 0.4670 0.4670
9.671752 0.4520 0.4050 0.3310 0.2560 0.1460
9.696000 0.1010 0.0900 0.1000 0.1310 0.2100
9.719752 0.2380 0.2650 0.3120 0.3500 0.3650
9.743000 0.3790 0.3920 0.4010 0.4050 0.4050
9.766752 0.4020 0.3940 0.3860 0.3730 0.3690
9.791000 0.3610 0.3510 0.3390 0.3280 0.3140
9.814752 0.3030 0.2990 0.2860 0.2800 0.2710
9.838000 0.2680 0.2590 0.2510 0.2450 0.2430
9.861752 0.2410 0.2400 0.2390 0.2380 0.2370
9.886000 0.2350 0.2340 0.2330 0.2320 0.2310
9.909752 0.2300 0.2300 0.2300 0.2310 0.2350
9.933000 0.2370 0.2380 0.2400 0.2430 0.2440
9.956752 0.2490 0.2500 0.2510 0.2530 0.2560
9.981000 0.2610 0.2630 0.2690 0.2800 0.2840
10.004752 0.3020 0.3080 0.3170 0.3200 0.3250
10.028000 0.3260 0.3260 0.3280 0.3330 0.3380
10.051752 0.3440 0.3500 0.3580 0.3670 0.3750
10.076000 0.3800 0.3870 0.4020 0.4060 0.4190
10.099752 0.4250 0.4320 0.4450 0.4520 0.4680
10.123000 0.4740 0.4810 0.4930 0.4980 0.5020
10.146752 0.5050 0.5130 0.5220 0.5300 0.5390
10.171000 0.5530 0.5570 0.5620 0.5690 0.5780
10.194752 0.5880 0.5930 0.6030 0.6040 0.6070
10.218000 0.6130 0.6190 0.6280 0.6350 0.6430
10.241752 0.6510 0.6540 0.6590 0.6710 0.6780
10.266000 0.6820 0.6940 0.6960 0.7030 0.7040
10.289752 0.7050 0.7110 0.7130 0.7190 0.7250
10.313000 0.7280 0.7330 0.7380 0.7430 0.7460
10.336752 0.7470 0.7490 0.7500 0.7520 0.7540
10.361000 0.7560 0.7610 0.7660 0.7710 0.7750
10.384752 0.7780 0.7790 0.7810 0.7840 0.7850
10.408000 0.7860 0.7890 0.7900 0.7920 0.7940
10.431752 0.7960 0.7980 0.8030 0.8040 0.8050
10.455000 0.8090 0.8090 0.8100 0.8110 0.8110
10.478752 0.8120 0.8140 0.8150 0.8150 0.8150
10.503000 0.8160 0.8170 0.8200 0.8220 0.8240
10.526752 0.8270 0.8270 0.8280 0.8290 0.8290
10.550000 0.8290 0.8290 0.8290 0.8300 0.8300
10.573752 0.8300 0.8300 0.8310 0.8310 0.8310
10.598000 0.8310 0.8310 0.8330 0.8330 0.8340
10.621752 0.8340 0.8340 0.8340 0.8340 0.8340
10.645000 0.8340 0.8340 0.8340 0.8340 0.8340
10.668752 0.8340 0.8350 0.8350 0.8350 0.8360
10.693000 0.8360 0.8360 0.8370 0.8370 0.8370
10.716752 0.8370 0.8360 0.8360 0.8360 0.8360
10.740000 0.8360 0.8360 0.8360 0.8360 0.8360
10.763752 0.8370 0.8390 0.8390 0.8390 0.8390
10.788000 0.8390 0.8390 0.8390 0.8390 0.8400
10.811752 0.8400 0.8410 0.8410 0.8410 0.8400
10.835000 0.8400 0.8390 0.8390 0.8390 0.8390
10.858752 0.8390 0.8390 0.8390 0.8390 0.8390
10.883000 0.8390 0.8390 0.8390 0.8390 0.8390
10.906752 0.8390 0.8390 0.8400 0.8400 0.8400
10.930000 0.8410 0.8410 0.8410 0.8410 0.8410
10.953752 0.8410 0.8410 0.8420 0.8420 0.8420
10.978000 0.8430 0.8430 0.8430 0.8430 0.8430
11.001752 0.8430 0.8450 0.8450 0.8450 0.8450
11.025000 0.8450 0.8450 0.8450 0.8450 0.8450
11.048752 0.8450 0.8450 0.8450 0.8460 0.8460
11.073000 0.8460 0.8460 0.8460 0.8460 0.8450
11.096752 0.8450 0.8450 0.8450 0.8450 0.8450
11.120000 0.8450 0.8450 0.8430 0.8430 0.8430
11.143752 0.8430 0.8430 0.8430 0.8420 0.8420
11.168000 0.8410 0.8410 0.8410 0.8420 0.8420
11.191752 0.8430 0.8430 0.8420 0.8420 0.8420
11.215000 0.8420 0.8420 0.8430 0.8430 0.8450
11.238752 0.8450 0.8450 0.8450 0.8450 0.8450
11.263000 0.8460 0.8460 0.8450 0.8450 0.8450
11.286752 0.8450 0.8450 0.8450 0.8430 0.8430
11.310000 0.8430 0.8430 0.8430 0.8430 0.8430
11.333752 0.8450 0.8450 0.8450 0.8450 0.8430
11.358000 0.8430 0.8430 0.8430 0.8430 0.8430
11.381752 0.8430 0.8430 0.8430 0.8430 0.8420
11.405000 0.8420 0.8420 0.8410 0.8410 0.8400
11.428752 0.8400 0.8400 0.8400 0.8400 0.8410
11.453000 0.8410 0.8410 0.8400 0.8400 0.8400
11.476752 0.8390 0.8390 0.8390 0.8390 0.8400
11.500000 0.8400 0.8410 0.8410 0.8420 0.8430
11.523752 0.8430 0.8450 0.8450 0.8450 0.8450
11.548000 0.8450 0.8450 0.8430 0.8430 0.8430
11.571752 0.8430 0.8430 0.8430 0.8430 0.8430
11.595000 0.8430 0.8430 0.8430 0.8450 0.8450
11.618752 0.8460 0.8460 0.8470 0.8470 0.8470
11.643000 0.8470 0.8470 0.8470 0.8470 0.8470
11.666752 0.8480 0.8480 0.8480 0.8480 0.8480
11.690000 0.8480 0.8480 0.8480 0.8480 0.8480
11.713752 0.8480 0.8490 0.8490 0.8510 0.8510
11.738000 0.8510 0.8510 0.8510 0.8510 0.8510
11.761752 0.8510 0.8510 0.8510 0.8490 0.8480
11.785000 0.8480 0.8480 0.8490 0.8490 0.8510
11.808752 0.8510 0.8490 0.8490 0.8490 0.8490
11.833000 0.8480 0.8480 0.8480 0.8480 0.8470
11.856752 0.8470 0.8460 0.8460 0.8450 0.8450
11.880000 0.8450 0.8450 0.8450 0.8450 0.8450
11.903752 0.8450 0.8450 0.8450 0.8460 0.8470
11.928000 0.8480 0.8490 0.8490 0.8490 0.8490
11.951752 0.8480 0.8480 0.8470 0.8470 0.8470
11.975000 0.8470 0.8470 0.8470 0.8470 0.8470
11.998752 0.8470 0.8480 0.8480 0.8480 0.8480
12.023000 0.8480 0.8490 0.8490 0.8490 0.8490
12.046752 0.8490 0.8490 0.8490 0.8490 0.8490
12.070000 0.8490 0.8490 0.8490 0.8490 0.8490
12.093752 0.8490 0.8490 0.8490 0.8490 0.8490
12.118000 0.8490 0.8510 0.8510 0.8510 0.8510
12.141752 0.8510 0.8510 0.8510 0.8510 0.8490
12.165000 0.8490 0.8490 0.8480 0.8480 0.8480
12.188752 0.8480 0.8480 0.8490 0.8490 0.8480
12.213000 0.8470 0.8460 0.8450 0.8430 0.8430
12.236752 0.8430 0.8430 0.8430 0.8430 0.8430
12.260000 0.8430 0.8430 0.8450 0.8430 0.8430
12.283752 0.8430 0.8430 0.8430 0.8430 0.8430
12.307000 0.8450 0.8460 0.8480 0.8480 0.8490
12.330752 0.8490 0.8510 0.8520 0.8520 0.8520
12.355000 0.8520 0.8520 0.8510 0.8490 0.8490
12.378752 0.8480 0.8480 0.8480 0.8470 0.8470
12.402000 0.8460 0.8460 0.8460 0.8460 0.8450
12.425752 0.8450 0.8450 0.8430 0.8430 0.8430
12.450000 0.8430 0.8430 0.8430 0.8430 0.8430
12.473752 0.8430 0.8450 0.8450 0.8430 0.8430
12.497000 0.8430 0.8450 0.8450 0.8430 0.8430
12.520752 0.8450 0.8450 0.8450 0.8450 0.8450
12.545000 0.8450 0.8450 0.8450 0.8450 0.8450
12.568752 0.8450 0.8450 0.8450 0.8450 0.8450
12.592000 0.8430 0.8430 0.8430 0.8430 0.8430
12.615752 0.8420 0.8420 0.8420 0.8420 0.8420
12.640000 0.8420 0.8430 0.8430 0.8430 0.8430
12.663752 0.8430 0.8430 0.8430 0.8430 0.8430
12.687000 0.8430 0.8420 0.8410 0.8410 0.8400
12.710752 0.8400 0.8400 0.8410 0.8410 0.8410
12.735000 0.8420 0.8430 0.8430 0.8430 0.8420
12.758752 0.8420 0.8410 0.8390 0.8390 0.8400
12.782000 0.8400 0.8400 0.8400 0.8400 0.8400
12.805752 0.8400 0.8400 0.8400 0.8400 0.8400
12.830000 0.8400 0.8400 0.8390 0.8390 0.8370
12.853752 0.8360 0.8360 0.8350 0.8340 0.8340
12.877000 0.8330 0.8330 0.8330 0.8330 0.8330
12.900752 0.8330 0.8340 0.8340 0.8340 0.8340
12.925000 0.8350 0.8350 0.8350 0.8350 0.8360
12.948752 0.8360 0.8360 0.8360 0.8360 0.8370
12.972000 0.8390 0.8390 0.8390 0.8400 0.8400
12.995752 0.8390 0.8390 0.8400 0.8400 0.8390
13.020000 0.8390 0.8390 0.8370 0.8370 0.8360
13.043752 0.8360 0.8360 0.8360 0.8360 0.8360
13.067000 0.8360 0.8370 0.8370 0.8370 0.8370
13.090752 0.8370 0.8370 0.8370 0.8370 0.8360
13.115000 0.8360 0.8350 0.8340 0.8340 0.8340
13.138752 0.8340 0.8340 0.8340 0.8340 0.8340
13.162000 0.8340 0.8340 0.8340 0.8340 0.8340
13.185752 0.8340 0.8340 0.8340 0.8340 0.8340
13.210000 0.8340 0.8340 0.8330 0.8310 0.8310
13.233752 0.8300 0.8300 0.8300 0.8300 0.8300
13.257000 0.8300 0.8300 0.8290 0.8330 0.8330
13.280752 0.8300 0.8300 0.8300 0.8290 0.8290
13.305000 0.8290 0.8280 0.8280 0.8280 0.8280
13.328752 0.8280 0.8280 0.8280 0.8270 0.8270
13.352000 0.8270 0.8270 0.8280 0.8280 0.8280
13.375752 0.8290 0.8290 0.8280 0.8280 0.8270
13.400000 0.8270 0.8270 0.8270 0.8270 0.8270
13.423752 0.8250 0.8250 0.8250 0.8250 0.8250
13.447000 0.8250 0.8250 0.8250 0.8250 0.8250
13.470752 0.8250 0.8250 0.8250 0.8250 0.8250
13.495000 0.8250 0.8250 0.8250 0.8240 0.8240
13.518752 0.8240 0.8240 0.8240 0.8230 0.8230
13.542000 0.8230 0.8230 0.8230 0.8230 0.8230
13.565752 0.8230 0.8240 0.8230 0.8230 0.8220
13.590000 0.8210 0.8180 0.8170 0.8150 0.8140
13.613752 0.8120 0.8110 0.8100 0.8090 0.8080
13.637000 0.8080 0.8060 0.8080 0.8080 0.8100
13.660752 0.8100 0.8110 0.8110 0.8110 0.8120
13.685000 0.8120 0.8120 0.8120 0.8120 0.8120
13.708752 0.8120 0.8120 0.8120 0.8120 0.8120
13.732000 0.8120 0.8120 0.8120 0.8110 0.8110
13.755752 0.8120 0.8120 0.8120 0.8120 0.8120
13.780000 0.8120 0.8120 0.8120 0.8120 0.8120
13.803752 0.8110 0.8110 0.8110 0.8100 0.8100
13.827000 0.8100 0.8090 0.8090 0.8080 0.8080
13.850752 0.8080 0.8080 0.8080 0.8080 0.8080
13.875000 0.8060 0.8060 0.8060 0.8050 0.8050
13.898752 0.8050 0.8050 0.8050 0.8040 0.8040
13.922000 0.8040 0.8040 0.8040 0.8040 0.8050
13.945752 0.8050 0.8040 0.8040 0.8040 0.8040
13.970000 0.8040 0.8030 0.8030 0.8030 0.8030
13.993752 0.8030 0.8030 0.8030 0.8030 0.8030
14.017000 0.8030 0.8030 0.8020 0.8020 0.8000
14.040752 0.7990 0.7980 0.7970 0.7970 0.7960
14.065000 0.7960 0.7960 0.7960 0.7960 0.7940
14.088752 0.7940 0.7940 0.7940 0.7940 0.7940
14.112000 0.7940 0.7940 0.7940 0.7940 0.7940
14.135752 0.7930 0.7930 0.7920 0.7920 0.7910
14.159000 0.7900 0.7900 0.7890 0.7870 0.7860
14.182752 0.7850 0.7850 0.7850 0.7850 0.7850
14.207000 0.7860 0.7860 0.7860 0.7860 0.7860
14.230752 0.7850 0.7850 0.7850 0.7850 0.7850
14.254000 0.7850 0.7850 0.7850 0.7850 0.7850
14.277752 0.7840 0.7840 0.7830 0.7830 0.7830
14.302000 0.7810 0.7810 0.7810 0.7800 0.7800
14.325752 0.7790 0.7780 0.7780 0.7780 0.7770
14.349000 0.7770 0.7770 0.7770 0.7770 0.7770
14.372752 0.7770 0.7770 0.7770 0.7750 0.7750
14.397000 0.7740 0.7730 0.7730 0.7730 0.7730
14.420752 0.7720 0.7710 0.7690 0.7660 0.7650
14.444000 0.7640 0.7640 0.7620 0.7620 0.7620
14.467752 0.7620 0.7620 0.7620 0.7620 0.7620
14.492000 0.7610 0.7610 0.7610 0.7610 0.7610
14.515752 0.7610 0.7610 0.7600 0.7590 0.7590
14.539000 0.7580 0.7560 0.7560 0.7560 0.7560
14.562752 0.7560 0.7560 0.7560 0.7560 0.7560
14.587000 0.7580 0.7580 0.7580 0.7580 0.7590
14.610752 0.7580 0.7580 0.7580 0.7580 0.7560
14.634000 0.7560 0.7560 0.7550 0.7550 0.7540
14.657752 0.7540 0.7540 0.7540 0.7540 0.7530
14.682000 0.7530 0.7530 0.7530 0.7520 0.7520
14.705752 0.7520 0.7490 0.7490 0.7480 0.7480
14.729000 0.7480 0.7480 0.7480 0.7470 0.7470
14.752752 0.7460 0.7460 0.7460 0.7460 0.7460
14.777000 0.7440 0.7440 0.7440 0.7420 0.7410
14.800752 0.7410 0.7400 0.7400 0.7380 0.7380
14.824000 0.7370 0.7360 0.7360 0.7360 0.7360
14.847752 0.7360 0.7360 0.7360 0.7360 0.7350
14.872000 0.7350 0.7340 0.7330 0.7330 0.7330
14.895752 0.7330 0.7330 0.7330 0.7330 0.7330
14.919000 0.7330 0.7330 0.7330 0.7310 0.7310
14.942752 0.7300 0.7290 0.7290 0.7280 0.7280
14.967000 0.7280 0.7280 0.7280 0.7280 0.7280
14.990752 0.7280 0.7280 0.7270 0.7270 0.7270
15.014000 0.7250
##END=
