##TITLE=5-AMINO-1,2,4-THIADIAZOLE
##JCAMP-DX=4.24
##DATA TYPE=INFRARED SPECTRUM
##CLASS=COBLENTZ
##ORIGIN=TENNESSEE EASTMAN COMPANY, RESEARCH LABORATORIES
##OWNER=COBLENTZ SOCIETY
Collection (C) 2018 copyright by the U.S. Secretary of Commerce
on behalf of the United States of America. All rights reserved.
##DATE=Not specified, most likely prior to 1970
##NAMES=1,2,4-thiadiazol-5-ylamine
1,2,4-thiadiazol-5-amine
##CAS REGISTRY NO=7552-07-0
##MOLFORM=C2 H3 N3 S
##SOURCE REFERENCE=COBLENTZ NO. 1448
##$NIST SOURCE=COBLENTZ
##$NIST IMAGE=cob1448
##SPECTROMETER/DATA SYSTEM=Not specified, most likely a prism, grating, or hybrid spectrometer.
##STATE=SOLID (KBr PELLET)
##SAMPLING PROCEDURE=TRANSMISSION
##RESOLUTION=4
##DATA PROCESSING=DIGITIZED BY NIST FROM HARD COPY
##XUNITS=MICROMETERS
##YUNITS=TRANSMITTANCE
##XFACTOR=1.000000
##YFACTOR=1
##DELTAX=000.006836
##FIRSTX=2.055
##LASTX=16.0137
##FIRSTY=0.933
##MAXX=16.0137
##MINX=2.055
##MAXY=0.976
##MINY=0.088
##NPOINTS=2043
##XYDATA=(X++(Y..Y))
2.055000 0.9330 0.9350 0.9360 0.9360 0.9360
2.089196 0.9380 0.9380 0.9400 0.9400 0.9410
2.123000 0.9430 0.9430 0.9430 0.9430 0.9450
2.157196 0.9450 0.9470 0.9480 0.9500 0.9520
2.191000 0.9520 0.9520 0.9520 0.9520 0.9530
2.225196 0.9530 0.9530 0.9550 0.9530 0.9550
2.260000 0.9570 0.9570 0.9590 0.9590 0.9590
2.294196 0.9590 0.9590 0.9570 0.9590 0.9590
2.328000 0.9590 0.9590 0.9590 0.9590 0.9590
2.362196 0.9600 0.9600 0.9620 0.9620 0.9620
2.396000 0.9640 0.9640 0.9640 0.9650 0.9650
2.430196 0.9650 0.9650 0.9650 0.9650 0.9650
2.465000 0.9650 0.9650 0.9650 0.9650 0.9650
2.499196 0.9650 0.9640 0.9640 0.9640 0.9640
2.533000 0.9640 0.9640 0.9640 0.9640 0.9640
2.567196 0.9640 0.9640 0.9640 0.9640 0.9640
2.602000 0.9640 0.9650 0.9650 0.9650 0.9650
2.636196 0.9670 0.9670 0.9670 0.9670 0.9670
2.670000 0.9670 0.9670 0.9670 0.9670 0.9650
2.704196 0.9650 0.9650 0.9650 0.9650 0.9650
2.738000 0.9640 0.9620 0.9620 0.9600 0.9590
2.772196 0.9520 0.9480 0.9400 0.9380 0.9240
2.807000 0.9180 0.9120 0.9090 0.9020 0.8950
2.841196 0.8830 0.8780 0.8700 0.8650 0.8530
2.875000 0.8460 0.8370 0.8270 0.8150 0.8020
2.909196 0.7900 0.7660 0.7500 0.7350 0.7080
2.943000 0.6580 0.6170 0.5420 0.4640 0.3850
2.977196 0.2900 0.2880 0.2910 0.3310 0.3720
3.012000 0.4040 0.4430 0.4770 0.4790 0.4790
3.046196 0.4740 0.4530 0.4350 0.4120 0.3990
3.080000 0.3770 0.3650 0.3490 0.3410 0.3370
3.114196 0.3370 0.3460 0.3650 0.3890 0.4190
3.148000 0.4430 0.4620 0.4720 0.4770 0.4740
3.182196 0.4670 0.4590 0.4280 0.4010 0.3780
3.217000 0.3540 0.3270 0.2910 0.2690 0.2550
3.251196 0.2400 0.2210 0.2160 0.2150 0.2130
3.285000 0.2150 0.2200 0.2350 0.3000 0.3490
3.319196 0.3870 0.4190 0.4450 0.4690 0.4840
3.354000 0.5220 0.5440 0.5520 0.5580 0.5590
3.388196 0.5590 0.5590 0.5590 0.5580 0.5510
3.422000 0.5490 0.5510 0.5540 0.5610 0.5810
3.456196 0.5980 0.6100 0.6340 0.6550 0.6790
3.490000 0.6970 0.7090 0.7210 0.7370 0.7380
3.524196 0.7610 0.7740 0.7860 0.7900 0.8020
3.559000 0.8100 0.8170 0.8200 0.8220 0.8250
3.593196 0.8340 0.8390 0.8410 0.8440 0.8480
3.627000 0.8490 0.8490 0.8510 0.8540 0.8560
3.661196 0.8580 0.8560 0.8540 0.8510 0.8480
3.695000 0.8410 0.8270 0.8190 0.8070 0.7980
3.729196 0.7930 0.7910 0.7910 0.7930 0.8020
3.764000 0.8120 0.8190 0.8240 0.8290 0.8310
3.798196 0.8390 0.8540 0.8610 0.8730 0.8800
3.832000 0.8850 0.8940 0.9010 0.9070 0.9110
3.866196 0.9160 0.9180 0.9190 0.9210 0.9230
3.900000 0.9230 0.9260 0.9280 0.9280 0.9280
3.934196 0.9280 0.9310 0.9310 0.9330 0.9350
3.969000 0.9350 0.9350 0.9360 0.9380 0.9400
4.003196 0.9400 0.9410 0.9430 0.9430 0.9450
4.037000 0.9470 0.9470 0.9480 0.9480 0.9480
4.071196 0.9480 0.9480 0.9480 0.9480 0.9500
4.105000 0.9500 0.9500 0.9500 0.9500 0.9500
4.139196 0.9500 0.9500 0.9500 0.9500 0.9500
4.174000 0.9500 0.9500 0.9500 0.9500 0.9500
4.208196 0.9500 0.9500 0.9500 0.9500 0.9500
4.242000 0.9500 0.9480 0.9480 0.9480 0.9470
4.276196 0.9400 0.9330 0.9310 0.9300 0.9280
4.311000 0.9260 0.9240 0.9240 0.9230 0.9230
4.345196 0.9230 0.9230 0.9230 0.9230 0.9230
4.379000 0.9240 0.9260 0.9310 0.9400 0.9500
4.413196 0.9520 0.9530 0.9520 0.9530 0.9530
4.447000 0.9550 0.9550 0.9530 0.9530 0.9530
4.481196 0.9530 0.9530 0.9520 0.9520 0.9520
4.516000 0.9520 0.9520 0.9520 0.9520 0.9520
4.550196 0.9520 0.9500 0.9500 0.9500 0.9500
4.584000 0.9530 0.9530 0.9530 0.9530 0.9530
4.618196 0.9530 0.9520 0.9520 0.9500 0.9500
4.652000 0.9500 0.9500 0.9500 0.9480 0.9480
4.686196 0.9480 0.9480 0.9500 0.9520 0.9520
4.721000 0.9530 0.9530 0.9530 0.9530 0.9530
4.755196 0.9530 0.9530 0.9530 0.9530 0.9530
4.789000 0.9530 0.9530 0.9530 0.9530 0.9530
4.823196 0.9530 0.9530 0.9530 0.9520 0.9520
4.857000 0.9520 0.9520 0.9520 0.9520 0.9520
4.891196 0.9520 0.9520 0.9520 0.9530 0.9530
4.926000 0.9530 0.9530 0.9530 0.9530 0.9530
4.960196 0.9530 0.9530 0.9530 0.9530 0.9550
4.994000 0.9550 0.9570 0.9590 0.9600 0.9620
5.028196 0.9650 0.9650 0.9650 0.9650 0.9670
5.063000 0.9670 0.9670 0.9670 0.9670 0.9670
5.097196 0.9670 0.9670 0.9670 0.9670 0.9670
5.131000 0.9670 0.9690 0.9690 0.9690 0.9690
5.165196 0.9690 0.9690 0.9690 0.9690 0.9690
5.199000 0.9690 0.9690 0.9690 0.9690 0.9700
5.233196 0.9690 0.9670 0.9670 0.9690 0.9690
5.268000 0.9690 0.9700 0.9700 0.9700 0.9700
5.302196 0.9700 0.9700 0.9700 0.9700 0.9690
5.336000 0.9650 0.9620 0.9570 0.9570 0.9570
5.370196 0.9570 0.9570 0.9590 0.9640 0.9670
5.404000 0.9690 0.9690 0.9670 0.9640 0.9600
5.438196 0.9550 0.9550 0.9530 0.9530 0.9550
5.473000 0.9590 0.9640 0.9650 0.9640 0.9620
5.507196 0.9570 0.9530 0.9530 0.9530 0.9570
5.541000 0.9590 0.9620 0.9640 0.9650 0.9670
5.575196 0.9670 0.9640 0.9620 0.9620 0.9620
5.609000 0.9620 0.9600 0.9600 0.9600 0.9590
5.643196 0.9590 0.9550 0.9520 0.9500 0.9500
5.678000 0.9430 0.9410 0.9400 0.9400 0.9400
5.712196 0.9380 0.9350 0.9310 0.9300 0.9280
5.746000 0.9190 0.9180 0.9160 0.9140 0.9120
5.780196 0.9110 0.9110 0.9090 0.9090 0.9070
5.814000 0.9090 0.9090 0.9090 0.9090 0.9070
5.848196 0.9070 0.9070 0.9070 0.9070 0.9090
5.883000 0.9090 0.9070 0.9070 0.9020 0.9020
5.917196 0.9010 0.8990 0.8970 0.8990 0.8990
5.951000 0.8990 0.8970 0.8900 0.8800 0.8780
5.985196 0.8750 0.8660 0.8540 0.8410 0.8240
6.020000 0.8050 0.7790 0.7640 0.7490 0.6820
6.054196 0.6190 0.5370 0.5150 0.5150 0.5290
6.088000 0.5560 0.5950 0.6330 0.6790 0.6970
6.122196 0.6970 0.6770 0.6140 0.5470 0.4810
6.156000 0.3370 0.3290 0.3290 0.3480 0.3730
6.190196 0.3850 0.3920 0.3970 0.3990 0.4230
6.225000 0.4530 0.5470 0.6050 0.6550 0.7080
6.259196 0.7450 0.7730 0.7930 0.8030 0.8120
6.293000 0.8190 0.8200 0.8250 0.8270 0.8310
6.327196 0.8320 0.8340 0.8370 0.8370 0.8360
6.361000 0.8360 0.8340 0.8340 0.8310 0.8290
6.395196 0.8220 0.8120 0.7930 0.7690 0.7540
6.430000 0.7380 0.6940 0.5850 0.5250 0.4640
6.464196 0.3270 0.1890 0.1680 0.1680 0.1870
6.498000 0.3490 0.3770 0.3770 0.3320 0.2880
6.532196 0.2440 0.2440 0.3430 0.3990 0.4600
6.566000 0.5750 0.6120 0.6430 0.6550 0.6550
6.600196 0.6580 0.6800 0.6990 0.7150 0.7440
6.635000 0.8150 0.8370 0.8480 0.8490 0.8480
6.669196 0.8480 0.8340 0.8190 0.7980 0.7570
6.703000 0.7300 0.7010 0.5870 0.4480 0.3080
6.737196 0.2740 0.2400 0.2230 0.2200 0.2130
6.771000 0.1970 0.1790 0.1530 0.1260 0.1100
6.805196 0.0920 0.0880 0.0900 0.0970 0.1040
6.840000 0.1190 0.1510 0.1870 0.2150 0.3580
6.874196 0.4240 0.4700 0.5300 0.5490 0.5690
6.908000 0.5920 0.6140 0.6380 0.6580 0.6680
6.942196 0.6800 0.6970 0.7030 0.7200 0.7300
6.977000 0.7370 0.7420 0.7490 0.7610 0.7690
7.011196 0.7780 0.7830 0.7880 0.7910 0.7960
7.045000 0.7980 0.8030 0.8080 0.8120 0.8170
7.079196 0.8190 0.8190 0.8190 0.8190 0.8200
7.113000 0.8200 0.8240 0.8250 0.8290 0.8290
7.147196 0.8290 0.8290 0.8290 0.8290 0.8290
7.182000 0.8310 0.8310 0.8310 0.8310 0.8310
7.216196 0.8310 0.8320 0.8360 0.8360 0.8360
7.250000 0.8360 0.8360 0.8340 0.8340 0.8340
7.284196 0.8340 0.8340 0.8360 0.8360 0.8370
7.318000 0.8370 0.8390 0.8410 0.8410 0.8410
7.352196 0.8430 0.8440 0.8460 0.8460 0.8480
7.387000 0.8490 0.8510 0.8530 0.8540 0.8540
7.421196 0.8560 0.8580 0.8600 0.8600 0.8600
7.455000 0.8600 0.8600 0.8600 0.8600 0.8600
7.489196 0.8600 0.8600 0.8610 0.8630 0.8630
7.523000 0.8630 0.8610 0.8610 0.8610 0.8610
7.557196 0.8610 0.8580 0.8510 0.8480 0.8410
7.592000 0.8340 0.8220 0.8080 0.7910 0.7810
7.626196 0.7780 0.7710 0.7670 0.7620 0.7610
7.660000 0.7590 0.7590 0.7620 0.7670 0.7690
7.694196 0.7690 0.7670 0.7670 0.7670 0.7660
7.729000 0.7610 0.7570 0.7500 0.7420 0.7330
7.763196 0.7130 0.6920 0.6650 0.6460 0.5850
7.797000 0.5420 0.4980 0.4620 0.4400 0.4380
7.831196 0.4410 0.5560 0.5830 0.6160 0.6450
7.865000 0.6550 0.6680 0.6790 0.6990 0.7080
7.899196 0.7200 0.7280 0.7350 0.7370 0.7370
7.934000 0.7300 0.6390 0.5810 0.5230 0.4940
7.968196 0.4650 0.2880 0.2860 0.2900 0.3440
8.002000 0.3890 0.4310 0.4740 0.5580 0.5810
8.036196 0.5950 0.5950 0.5390 0.4820 0.4110
8.070000 0.3080 0.2620 0.2160 0.2090 0.2160
8.104196 0.2490 0.2830 0.2900 0.3020 0.3130
8.139000 0.3460 0.3850 0.4380 0.4740 0.5580
8.173196 0.5900 0.6090 0.6240 0.6410 0.6580
8.207000 0.6770 0.6940 0.7010 0.7030 0.7130
8.241196 0.7160 0.7180 0.7250 0.7280 0.7350
8.275000 0.7400 0.7470 0.7490 0.7520 0.7540
8.309196 0.7550 0.7570 0.7590 0.7660 0.7660
8.344000 0.7670 0.7690 0.7690 0.7740 0.7760
8.378196 0.7760 0.7780 0.7780 0.7790 0.7830
8.412000 0.7860 0.7880 0.7900 0.7900 0.7910
8.446196 0.7910 0.7930 0.7930 0.7950 0.7960
8.480000 0.7960 0.7960 0.7980 0.7980 0.7980
8.514196 0.8000 0.8000 0.8000 0.8000 0.8020
8.549000 0.8020 0.8020 0.8020 0.8020 0.8020
8.583196 0.8020 0.8020 0.8020 0.8020 0.8030
8.617000 0.8030 0.8030 0.8030 0.8030 0.8050
8.651196 0.8050 0.8050 0.8050 0.8050 0.8050
8.686000 0.8050 0.8050 0.8050 0.8050 0.8050
8.720196 0.8070 0.8050 0.8050 0.8050 0.8050
8.754000 0.8050 0.8050 0.8070 0.8070 0.8070
8.788196 0.8070 0.8070 0.8070 0.8070 0.8050
8.822000 0.8050 0.8050 0.8030 0.8030 0.8020
8.856196 0.8020 0.8020 0.8020 0.8020 0.8020
8.891000 0.8020 0.8020 0.8000 0.8000 0.8000
8.925196 0.8000 0.8000 0.8000 0.8000 0.7980
8.959000 0.7980 0.7980 0.7980 0.8000 0.8000
8.993196 0.8000 0.8000 0.8000 0.8000 0.8000
9.027000 0.8000 0.8000 0.7980 0.7980 0.7980
9.061196 0.7910 0.7910 0.7900 0.7900 0.7900
9.096000 0.7900 0.7900 0.7900 0.7900 0.7880
9.130196 0.7860 0.7840 0.7830 0.7830 0.7810
9.164000 0.7790 0.7780 0.7740 0.7730 0.7690
9.198196 0.7670 0.7500 0.7490 0.7470 0.7400
9.232000 0.7300 0.7260 0.7150 0.7080 0.6940
9.266196 0.6840 0.6720 0.6530 0.6390 0.6190
9.301000 0.6040 0.5920 0.5730 0.5540 0.5440
9.335196 0.5340 0.5230 0.5200 0.5200 0.5200
9.369000 0.5200 0.5290 0.5390 0.5610 0.5800
9.403196 0.5830 0.5870 0.6270 0.6620 0.6840
9.438000 0.6990 0.7210 0.7330 0.7660 0.7780
9.472196 0.7880 0.7960 0.8050 0.8170 0.8200
9.506000 0.8270 0.8290 0.8360 0.8440 0.8480
9.540196 0.8490 0.8530 0.8580 0.8630 0.8630
9.574000 0.8650 0.8660 0.8680 0.8680 0.8680
9.608196 0.8700 0.8700 0.8720 0.8720 0.8720
9.643000 0.8730 0.8730 0.8750 0.8770 0.8780
9.677196 0.8780 0.8800 0.8800 0.8800 0.8820
9.711000 0.8820 0.8820 0.8830 0.8830 0.8830
9.745196 0.8850 0.8850 0.8870 0.8870 0.8870
9.779000 0.8890 0.8890 0.8900 0.8900 0.8900
9.813196 0.8900 0.8920 0.8920 0.8920 0.8940
9.848000 0.8940 0.8950 0.8950 0.8970 0.8990
9.882196 0.8990 0.8990 0.8990 0.8990 0.8990
9.916000 0.9010 0.9010 0.9010 0.9010 0.9010
9.950196 0.9020 0.9020 0.9040 0.9060 0.9070
9.984000 0.9090 0.9110 0.9120 0.9140 0.9140
10.018196 0.9160 0.9160 0.9160 0.9160 0.9160
10.053000 0.9160 0.9160 0.9160 0.9160 0.9160
10.087196 0.9160 0.9180 0.9180 0.9180 0.9180
10.121000 0.9190 0.9190 0.9190 0.9190 0.9190
10.155196 0.9210 0.9210 0.9210 0.9230 0.9240
10.189000 0.9240 0.9260 0.9260 0.9260 0.9260
10.223196 0.9260 0.9280 0.9280 0.9280 0.9280
10.258000 0.9280 0.9300 0.9280 0.9280 0.9300
10.292196 0.9300 0.9300 0.9300 0.9310 0.9310
10.326000 0.9310 0.9310 0.9310 0.9310 0.9310
10.360196 0.9310 0.9310 0.9310 0.9330 0.9330
10.395000 0.9330 0.9350 0.9330 0.9330 0.9330
10.429196 0.9330 0.9330 0.9330 0.9330 0.9330
10.463000 0.9330 0.9330 0.9330 0.9330 0.9330
10.497196 0.9350 0.9350 0.9360 0.9360 0.9360
10.531000 0.9360 0.9360 0.9360 0.9360 0.9350
10.565196 0.9330 0.9300 0.9260 0.9230 0.9020
10.600000 0.8830 0.8580 0.8220 0.7910 0.7760
10.634196 0.7660 0.7590 0.7590 0.7620 0.7780
10.668000 0.8020 0.8220 0.8430 0.8580 0.8720
10.702196 0.8830 0.8920 0.9020 0.9110 0.9190
10.736000 0.9230 0.9260 0.9280 0.9280 0.9280
10.770196 0.9280 0.9280 0.9210 0.8990 0.8680
10.805000 0.8370 0.8130 0.7980 0.7980 0.8070
10.839196 0.8250 0.8460 0.8700 0.8920 0.9020
10.873000 0.9160 0.9310 0.9360 0.9380 0.9400
10.907196 0.9400 0.9380 0.9360 0.9300 0.9230
10.941000 0.9040 0.8890 0.8780 0.8780 0.8870
10.975196 0.8900 0.9090 0.9180 0.9260 0.9380
11.010000 0.9480 0.9570 0.9600 0.9620 0.9650
11.044196 0.9670 0.9670 0.9720 0.9760 0.9760
11.078000 0.9760 0.9760 0.9760 0.9760 0.9760
11.112196 0.9760 0.9760 0.9760 0.9760 0.9720
11.146000 0.9700 0.9570 0.9430 0.9140 0.8920
11.180196 0.8490 0.8020 0.7540 0.7300 0.7040
11.215000 0.6630 0.6290 0.6220 0.6100 0.6090
11.249196 0.6070 0.6090 0.6160 0.6190 0.6330
11.283000 0.6380 0.6530 0.6750 0.6920 0.7080
11.317196 0.7230 0.7420 0.7790 0.7960 0.8070
11.352000 0.8120 0.8240 0.8320 0.8440 0.8530
11.386196 0.8610 0.8700 0.8770 0.8870 0.8990
11.420000 0.9040 0.9060 0.9060 0.9090 0.9160
11.454196 0.9190 0.9210 0.9280 0.9310 0.9310
11.488000 0.9330 0.9330 0.9360 0.9380 0.9400
11.522196 0.9430 0.9450 0.9470 0.9470 0.9480
11.557000 0.9480 0.9500 0.9500 0.9520 0.9520
11.591196 0.9530 0.9550 0.9550 0.9550 0.9550
11.625000 0.9550 0.9550 0.9550 0.9570 0.9590
11.659196 0.9590 0.9590 0.9600 0.9620 0.9620
11.693000 0.9650 0.9650 0.9650 0.9650 0.9670
11.727196 0.9670 0.9670 0.9670 0.9690 0.9690
11.762000 0.9690 0.9700 0.9700 0.9700 0.9700
11.796196 0.9700 0.9700 0.9700 0.9700 0.9700
11.830000 0.9700 0.9700 0.9700 0.9700 0.9700
11.864196 0.9700 0.9700 0.9700 0.9700 0.9700
11.898000 0.9700 0.9700 0.9700 0.9700 0.9700
11.932196 0.9700 0.9700 0.9700 0.9700 0.9700
11.967000 0.9700 0.9700 0.9700 0.9700 0.9700
12.001196 0.9700 0.9700 0.9700 0.9700 0.9700
12.035000 0.9700 0.9700 0.9700 0.9700 0.9700
12.069196 0.9700 0.9700 0.9700 0.9700 0.9700
12.104000 0.9700 0.9700 0.9700 0.9700 0.9700
12.138196 0.9700 0.9700 0.9700 0.9700 0.9700
12.172000 0.9700 0.9700 0.9700 0.9700 0.9700
12.206196 0.9700 0.9700 0.9700 0.9700 0.9690
12.240000 0.9690 0.9690 0.9690 0.9690 0.9690
12.274196 0.9690 0.9670 0.9670 0.9670 0.9670
12.309000 0.9670 0.9670 0.9670 0.9670 0.9670
12.343196 0.9650 0.9650 0.9650 0.9650 0.9650
12.377000 0.9650 0.9650 0.9650 0.9650 0.9650
12.411196 0.9640 0.9640 0.9650 0.9650 0.9650
12.445000 0.9650 0.9650 0.9670 0.9650 0.9650
12.479196 0.9670 0.9670 0.9670 0.9670 0.9670
12.514000 0.9670 0.9670 0.9670 0.9670 0.9650
12.548196 0.9650 0.9640 0.9620 0.9620 0.9620
12.582000 0.9620 0.9640 0.9640 0.9640 0.9620
12.616196 0.9620 0.9620 0.9620 0.9620 0.9620
12.650000 0.9640 0.9640 0.9620 0.9620 0.9620
12.684196 0.9620 0.9620 0.9620 0.9620 0.9620
12.719000 0.9620 0.9620 0.9620 0.9620 0.9620
12.753196 0.9620 0.9620 0.9620 0.9600 0.9590
12.787000 0.9590 0.9590 0.9590 0.9600 0.9600
12.821196 0.9590 0.9570 0.9570 0.9570 0.9570
12.855000 0.9570 0.9570 0.9570 0.9570 0.9570
12.889196 0.9570 0.9570 0.9550 0.9550 0.9550
12.924000 0.9530 0.9520 0.9500 0.9500 0.9470
12.958196 0.9470 0.9470 0.9410 0.9400 0.9380
12.992000 0.9380 0.9380 0.9360 0.9350 0.9300
13.026196 0.9280 0.9260 0.9160 0.9090 0.8970
13.061000 0.8800 0.8530 0.8370 0.8080 0.7830
13.095196 0.7540 0.7420 0.7280 0.6970 0.6720
13.129000 0.6560 0.6450 0.6430 0.6450 0.6530
13.163196 0.6740 0.7010 0.7230 0.7670 0.7860
13.197000 0.7980 0.8080 0.8170 0.8240 0.8250
13.231196 0.8270 0.8290 0.8360 0.8370 0.8390
13.266000 0.8410 0.8430 0.8440 0.8440 0.8410
13.300196 0.8370 0.8290 0.8170 0.8100 0.7980
13.334000 0.7760 0.7520 0.7280 0.7130 0.6800
13.368196 0.6450 0.5950 0.5420 0.5180 0.5050
13.402000 0.4890 0.4880 0.4890 0.4910 0.5000
13.436196 0.5390 0.5680 0.5930 0.6170 0.6390
13.471000 0.6680 0.6870 0.7030 0.7110 0.7250
13.505196 0.7350 0.7400 0.7470 0.7550 0.7590
13.539000 0.7640 0.7660 0.7690 0.7690 0.7710
13.573196 0.7740 0.7760 0.7790 0.7790 0.7810
13.607000 0.7840 0.7840 0.7840 0.7860 0.7860
13.641196 0.7860 0.7860 0.7860 0.7880 0.7880
13.676000 0.7880 0.7880 0.7880 0.7880 0.7880
13.710196 0.7880 0.7900 0.7900 0.7900 0.7900
13.744000 0.7900 0.7900 0.7900 0.7900 0.7900
13.778196 0.7900 0.7880 0.7880 0.7860 0.7860
13.813000 0.7860 0.7880 0.7880 0.7880 0.7880
13.847196 0.7880 0.7880 0.7880 0.7880 0.7880
13.881000 0.7860 0.7860 0.7860 0.7860 0.7860
13.915196 0.7860 0.7880 0.7860 0.7860 0.7860
13.949000 0.7880 0.7860 0.7860 0.7860 0.7860
13.983196 0.7860 0.7860 0.7860 0.7860 0.7860
14.018000 0.7860 0.7860 0.7880 0.7900 0.7900
14.052196 0.7910 0.7930 0.7930 0.7950 0.7950
14.086000 0.7960 0.7960 0.7960 0.7960 0.7960
14.120196 0.7960 0.7980 0.7980 0.8000 0.8000
14.154000 0.8020 0.8030 0.8030 0.8030 0.8030
14.188196 0.8030 0.8030 0.8030 0.8030 0.8050
14.223000 0.8050 0.8070 0.8070 0.8070 0.8070
14.257196 0.8070 0.8050 0.8030 0.8030 0.8020
14.291000 0.8020 0.8020 0.8000 0.8000 0.7980
14.325196 0.7980 0.7980 0.7960 0.7950 0.7950
14.359000 0.7910 0.7900 0.7880 0.7860 0.7860
14.393196 0.7840 0.7840 0.7830 0.7840 0.7840
14.428000 0.7840 0.7840 0.7830 0.7830 0.7830
14.462196 0.7810 0.7810 0.7810 0.7810 0.7810
14.496000 0.7810 0.7790 0.7780 0.7780 0.7760
14.530196 0.7740 0.7740 0.7760 0.7760 0.7760
14.564000 0.7740 0.7740 0.7740 0.7740 0.7760
14.598196 0.7760 0.7790 0.7810 0.7830 0.7860
14.633000 0.7880 0.7880 0.7880 0.7860 0.7860
14.667196 0.7840 0.7840 0.7860 0.7860 0.7860
14.701000 0.7880 0.7880 0.7900 0.7900 0.7900
14.735196 0.7900 0.7900 0.7910 0.7900 0.7900
14.770000 0.7900 0.7880 0.7880 0.7860 0.7860
14.804196 0.7860 0.7860 0.7860 0.7860 0.7880
14.838000 0.7880 0.7880 0.7860 0.7860 0.7840
14.872196 0.7830 0.7830 0.7840 0.7840 0.7860
14.906000 0.7860 0.7840 0.7830 0.7810 0.7760
14.940196 0.7760 0.7710 0.7710 0.7690 0.7670
14.975000 0.7660 0.7640 0.7640 0.7620 0.7610
15.009196 0.7570 0.7540 0.7540 0.7520 0.7520
15.043000 0.7520 0.7520 0.7520 0.7520 0.7520
15.077196 0.7520 0.7500 0.7500 0.7500 0.7500
15.111000 0.7500 0.7490 0.7490 0.7490 0.7490
15.145196 0.7470 0.7470 0.7450 0.7450 0.7440
15.180000 0.7440 0.7420 0.7420 0.7400 0.7380
15.214196 0.7370 0.7330 0.7320 0.7300 0.7280
15.248000 0.7260 0.7260 0.7250 0.7210 0.7200
15.282196 0.7160 0.7110 0.7090 0.7080 0.7060
15.316000 0.7060 0.7010 0.6990 0.6970 0.6970
15.350196 0.6940 0.6910 0.6890 0.6870 0.6860
15.385000 0.6820 0.6800 0.6790 0.6770 0.6750
15.419196 0.6740 0.6720 0.6680 0.6670 0.6630
15.453000 0.6630 0.6620 0.6620 0.6580 0.6560
15.487196 0.6510 0.6500 0.6480 0.6460 0.6460
15.521000 0.6430 0.6410 0.6410 0.6410 0.6390
15.555196 0.6380 0.6340 0.6310 0.6270 0.6240
15.590000 0.6210 0.6210 0.6190 0.6170 0.6160
15.624196 0.6140 0.6140 0.6120 0.6100 0.6090
15.658000 0.6070 0.6050 0.6040 0.6020 0.6000
15.692196 0.5980 0.5980 0.5980 0.5980 0.5970
15.727000 0.5970 0.5950 0.5930 0.5920 0.5920
15.761196 0.5920 0.5900 0.5900 0.5880 0.5880
15.795000 0.5880 0.5880 0.5870 0.5850 0.5830
15.829196 0.5810 0.5810 0.5800 0.5780 0.5760
15.863000 0.5760 0.5750 0.5750 0.5750 0.5750
15.897196 0.5750 0.5750 0.5750 0.5730 0.5730
15.932000 0.5710 0.5690 0.5690 0.5690 0.5690
15.966196 0.5690 0.5680 0.5680 0.5690 0.5690
16.000000 0.5690 0.5690 0.5690
##END=
