##TITLE=Alpha-CHLORO ACRYLONITRILE
##JCAMP-DX=4.24
##DATA TYPE=INFRARED SPECTRUM
##CLASS=COBLENTZ
##ORIGIN=STANDARD OIL OF OHIO
##OWNER=COBLENTZ SOCIETY
Collection (C) 2018 copyright by the U.S. Secretary of Commerce
on behalf of the United States of America. All rights reserved.
##DATE=Not specified, most likely prior to 1970
##NAMES=2-chloroacrylonitrile
##CAS REGISTRY NO=920-37-6
##MOLFORM=C3 H2 Cl N
##BP=87-88 C
##SOURCE REFERENCE=COBLENTZ NO. 2047
##$NIST SOURCE=COBLENTZ
##$NIST IMAGE=cob2047
##SPECTROMETER/DATA SYSTEM=PERKIN-ELMER (GRATING)
##STATE=LIQUID
##PATH LENGTH=0.0022 CM
##SAMPLING PROCEDURE=TRANSMISSION
##RESOLUTION=4
##DATA PROCESSING=DIGITIZED BY NIST FROM HARD COPY
##XUNITS=MICROMETERS
##YUNITS=TRANSMITTANCE
##XFACTOR=1.000000
##YFACTOR=1
##DELTAX=000.006764
##FIRSTX=2.027
##LASTX=15.4061
##FIRSTY=0.984
##MAXX=15.4061
##MINX=2.027
##MAXY=0.989
##MINY=0.011
##NPOINTS=1979
##XYDATA=(X++(Y..Y))
2.027000 0.9840 0.9840 0.9840 0.9840 0.9840
2.060836 0.9840 0.9840 0.9840 0.9840 0.9840
2.095000 0.9840 0.9840 0.9840 0.9840 0.9840
2.128836 0.9840 0.9840 0.9840 0.9840 0.9840
2.162000 0.9840 0.9840 0.9840 0.9840 0.9840
2.195836 0.9840 0.9840 0.9840 0.9840 0.9820
2.230000 0.9810 0.9790 0.9760 0.9690 0.9530
2.263836 0.9520 0.9590 0.9670 0.9720 0.9740
2.298000 0.9790 0.9810 0.9810 0.9810 0.9810
2.331836 0.9810 0.9810 0.9790 0.9590 0.9590
2.365000 0.9600 0.9670 0.9700 0.9720 0.9700
2.398836 0.9670 0.9670 0.9670 0.9690 0.9720
2.433000 0.9740 0.9740 0.9790 0.9810 0.9810
2.466836 0.9810 0.9820 0.9820 0.9810 0.9790
2.501000 0.9770 0.9760 0.9740 0.9720 0.9740
2.534836 0.9740 0.9760 0.9760 0.9760 0.9770
2.568000 0.9770 0.9790 0.9790 0.9790 0.9790
2.601836 0.9790 0.9790 0.9790 0.9770 0.9770
2.636000 0.9770 0.9770 0.9790 0.9810 0.9810
2.669836 0.9820 0.9820 0.9840 0.9840 0.9840
2.703000 0.9840 0.9820 0.9810 0.9790 0.9760
2.736836 0.9740 0.9720 0.9700 0.9700 0.9690
2.771000 0.9690 0.9690 0.9690 0.9690 0.9690
2.804836 0.9690 0.9690 0.9690 0.9690 0.9690
2.839000 0.9690 0.9670 0.9670 0.9650 0.9650
2.872836 0.9620 0.9600 0.9600 0.9600 0.9590
2.906000 0.9590 0.9590 0.9590 0.9590 0.9550
2.939836 0.9530 0.9480 0.9430 0.9430 0.9430
2.974000 0.9430 0.9430 0.9430 0.9430 0.9450
3.007836 0.9480 0.9480 0.9480 0.9480 0.9500
3.042000 0.9500 0.9500 0.9500 0.9500 0.9500
3.075836 0.9500 0.9500 0.9430 0.9350 0.9280
3.109000 0.9040 0.8850 0.8510 0.8490 0.8490
3.142836 0.8510 0.8560 0.8580 0.8540 0.8310
3.177000 0.7790 0.6990 0.5920 0.5880 0.5880
3.210836 0.6090 0.7110 0.7570 0.7930 0.8070
3.245000 0.8390 0.8410 0.8410 0.8390 0.7860
3.278836 0.7250 0.6510 0.5800 0.5760 0.5780
3.312000 0.5900 0.6550 0.6990 0.7420 0.7900
3.345836 0.8000 0.8000 0.8000 0.7900 0.7670
3.380000 0.7660 0.7670 0.7830 0.8050 0.8320
3.413836 0.8610 0.8890 0.9090 0.9210 0.9310
3.447000 0.9380 0.9410 0.9450 0.9480 0.9480
3.480836 0.9500 0.9520 0.9530 0.9550 0.9570
3.515000 0.9590 0.9600 0.9620 0.9640 0.9650
3.548836 0.9670 0.9690 0.9700 0.9720 0.9720
3.583000 0.9720 0.9720 0.9720 0.9700 0.9690
3.616836 0.9650 0.9590 0.9520 0.9480 0.9470
3.650000 0.9470 0.9500 0.9530 0.9590 0.9620
3.683836 0.9640 0.9650 0.9700 0.9720 0.9720
3.718000 0.9740 0.9760 0.9770 0.9790 0.9790
3.751836 0.9810 0.9810 0.9810 0.9810 0.9810
3.786000 0.9810 0.9820 0.9820 0.9820 0.9820
3.819836 0.9840 0.9840 0.9840 0.9840 0.9840
3.853000 0.9860 0.9860 0.9860 0.9860 0.9860
3.886836 0.9860 0.9860 0.9860 0.9860 0.9860
3.921000 0.9860 0.9860 0.9860 0.9860 0.9860
3.954836 0.9860 0.9860 0.9860 0.9860 0.9860
3.989000 0.9860 0.9860 0.9860 0.9840 0.9810
4.022836 0.9790 0.9770 0.9740 0.9720 0.9720
4.056000 0.9720 0.9720 0.9720 0.9740 0.9760
4.089836 0.9770 0.9790 0.9810 0.9810 0.9810
4.124000 0.9810 0.9810 0.9810 0.9810 0.9810
4.157836 0.9790 0.9790 0.9770 0.9760 0.9760
4.191000 0.9770 0.9790 0.9790 0.9810 0.9810
4.224836 0.9820 0.9820 0.9840 0.9840 0.9860
4.259000 0.9860 0.9860 0.9860 0.9860 0.9860
4.292836 0.9860 0.9860 0.9860 0.9840 0.9840
4.327000 0.9840 0.9840 0.9840 0.9820 0.9820
4.360836 0.9820 0.9820 0.9810 0.9810 0.9790
4.394000 0.9760 0.9740 0.9690 0.9590 0.9480
4.427836 0.9300 0.9110 0.8990 0.8890 0.8850
4.462000 0.8780 0.8390 0.6820 0.6650 0.6630
4.495836 0.6670 0.7900 0.8030 0.8430 0.8920
4.530000 0.9350 0.9480 0.9570 0.9650 0.9720
4.563836 0.9720 0.9760 0.9760 0.9770 0.9770
4.597000 0.9770 0.9790 0.9790 0.9820 0.9840
4.630836 0.9840 0.9840 0.9860 0.9860 0.9860
4.665000 0.9860 0.9860 0.9880 0.9880 0.9880
4.698836 0.9880 0.9890 0.9890 0.9890 0.9890
4.733000 0.9890 0.9890 0.9890 0.9890 0.9890
4.766836 0.9890 0.9890 0.9890 0.9890 0.9890
4.800000 0.9890 0.9890 0.9890 0.9890 0.9890
4.833836 0.9890 0.9890 0.9880 0.9880 0.9860
4.868000 0.9860 0.9840 0.9820 0.9810 0.9790
4.901836 0.9790 0.9790 0.9810 0.9810 0.9820
4.935000 0.9840 0.9860 0.9880 0.9880 0.9890
4.968836 0.9890 0.9890 0.9890 0.9890 0.9880
5.003000 0.9860 0.9840 0.9820 0.9810 0.9810
5.036836 0.9810 0.9810 0.9840 0.9840 0.9860
5.071000 0.9860 0.9860 0.9860 0.9860 0.9860
5.104836 0.9840 0.9840 0.9840 0.9840 0.9840
5.138000 0.9840 0.9840 0.9840 0.9840 0.9840
5.171836 0.9840 0.9840 0.9840 0.9820 0.9820
5.206000 0.9810 0.9790 0.9790 0.9770 0.9740
5.239836 0.9700 0.9690 0.9620 0.9570 0.9520
5.274000 0.9430 0.9360 0.9280 0.9190 0.9090
5.307836 0.8970 0.8850 0.8720 0.8560 0.8490
5.341000 0.8430 0.8370 0.8290 0.8240 0.8170
5.374836 0.8150 0.8150 0.8150 0.8190 0.8240
5.409000 0.8310 0.8390 0.8490 0.8610 0.8750
5.442836 0.8870 0.8970 0.9060 0.9120 0.9190
5.477000 0.9260 0.9310 0.9350 0.9410 0.9470
5.510836 0.9520 0.9570 0.9600 0.9620 0.9650
5.544000 0.9670 0.9690 0.9690 0.9700 0.9700
5.577836 0.9700 0.9690 0.9650 0.9640 0.9590
5.612000 0.9530 0.9520 0.9500 0.9500 0.9480
5.645836 0.9480 0.9500 0.9500 0.9520 0.9520
5.680000 0.9530 0.9570 0.9600 0.9600 0.9620
5.713836 0.9620 0.9640 0.9640 0.9640 0.9640
5.747000 0.9640 0.9620 0.9600 0.9590 0.9570
5.780836 0.9530 0.9480 0.9450 0.9400 0.9350
5.815000 0.9300 0.9240 0.9210 0.9160 0.9070
5.848836 0.9020 0.8990 0.8990 0.9010 0.9010
5.882000 0.9040 0.9040 0.9110 0.9190 0.9230
5.915836 0.9280 0.9310 0.9350 0.9350 0.9360
5.950000 0.9380 0.9380 0.9380 0.9380 0.9380
5.983836 0.9380 0.9380 0.9360 0.9330 0.9300
6.018000 0.9280 0.9240 0.9230 0.9210 0.9210
6.051836 0.9180 0.9160 0.9140 0.9110 0.9040
6.085000 0.8990 0.8940 0.8890 0.8830 0.8780
6.118836 0.8730 0.8630 0.8530 0.8460 0.8360
6.153000 0.8270 0.8150 0.8000 0.7790 0.7540
6.186836 0.6940 0.6120 0.4960 0.3800 0.2860
6.221000 0.1910 0.1500 0.0900 0.0880 0.0920
6.254836 0.1670 0.2350 0.3270 0.4060 0.4700
6.288000 0.5560 0.6190 0.6650 0.6990 0.7210
6.321836 0.7370 0.7490 0.7590 0.7710 0.7860
6.356000 0.8070 0.8360 0.8560 0.8680 0.8820
6.389836 0.8940 0.9010 0.9040 0.9110 0.9120
6.424000 0.9160 0.9190 0.9210 0.9240 0.9280
6.457836 0.9300 0.9310 0.9310 0.9350 0.9350
6.491000 0.9360 0.9360 0.9400 0.9430 0.9450
6.524836 0.9450 0.9480 0.9480 0.9500 0.9500
6.559000 0.9500 0.9520 0.9520 0.9520 0.9520
6.592836 0.9520 0.9520 0.9520 0.9520 0.9520
6.626000 0.9520 0.9520 0.9520 0.9520 0.9520
6.659836 0.9520 0.9520 0.9500 0.9500 0.9500
6.694000 0.9480 0.9410 0.9400 0.9380 0.9360
6.727836 0.9350 0.9330 0.9330 0.9330 0.9330
6.762000 0.9330 0.9330 0.9330 0.9330 0.9330
6.795836 0.9350 0.9350 0.9350 0.9350 0.9330
6.829000 0.9330 0.9300 0.9280 0.9230 0.9210
6.862836 0.9210 0.9190 0.9160 0.9110 0.9020
6.897000 0.8970 0.8890 0.8820 0.8720 0.8580
6.930836 0.8490 0.8410 0.8310 0.8220 0.8150
6.965000 0.8070 0.8000 0.7880 0.7730 0.7470
6.998836 0.7230 0.7010 0.6770 0.6560 0.6460
7.032000 0.6450 0.6450 0.6460 0.6530 0.6620
7.065836 0.6680 0.6770 0.6870 0.6970 0.7110
7.100000 0.7250 0.7400 0.7540 0.7670 0.7790
7.133836 0.7950 0.8070 0.8150 0.8220 0.8270
7.168000 0.8310 0.8340 0.8360 0.8370 0.8370
7.201836 0.8360 0.8360 0.8320 0.8200 0.8070
7.235000 0.7900 0.7670 0.7300 0.6770 0.5980
7.268836 0.5270 0.4690 0.3800 0.3430 0.3290
7.303000 0.3270 0.3320 0.4190 0.4960 0.5560
7.336836 0.6090 0.6480 0.6910 0.7260 0.7570
7.370000 0.7810 0.8030 0.8200 0.8340 0.8440
7.403836 0.8540 0.8630 0.8720 0.8780 0.8830
7.438000 0.8890 0.8940 0.9010 0.9020 0.9020
7.471836 0.9060 0.9070 0.9090 0.9090 0.9110
7.506000 0.9120 0.9120 0.9120 0.9110 0.9110
7.539836 0.9110 0.9090 0.9090 0.9070 0.9060
7.573000 0.9060 0.9040 0.9020 0.9020 0.9010
7.606836 0.9010 0.8950 0.8940 0.8920 0.8900
7.641000 0.8900 0.8890 0.8890 0.8890 0.8890
7.674836 0.8890 0.8890 0.8900 0.8900 0.8900
7.709000 0.8920 0.8940 0.8950 0.9010 0.9020
7.742836 0.9040 0.9060 0.9070 0.9070 0.9060
7.776000 0.9020 0.8990 0.8890 0.8800 0.8720
7.809836 0.8650 0.8600 0.8580 0.8580 0.8580
7.844000 0.8600 0.8610 0.8650 0.8660 0.8680
7.877836 0.8700 0.8720 0.8730 0.8730 0.8750
7.912000 0.8750 0.8750 0.8750 0.8750 0.8750
7.945836 0.8730 0.8730 0.8720 0.8720 0.8720
7.979000 0.8720 0.8720 0.8720 0.8730 0.8730
8.012836 0.8720 0.8720 0.8700 0.8660 0.8650
8.047000 0.8650 0.8630 0.8630 0.8630 0.8610
8.080836 0.8610 0.8610 0.8630 0.8650 0.8650
8.114000 0.8650 0.8630 0.8630 0.8630 0.8600
8.147836 0.8560 0.8510 0.8460 0.8390 0.8320
8.182000 0.8250 0.8200 0.8150 0.8070 0.8030
8.215836 0.8000 0.7980 0.7910 0.7860 0.7840
8.250000 0.7830 0.7790 0.7760 0.7730 0.7710
8.283836 0.7710 0.7710 0.7710 0.7710 0.7710
8.317000 0.7730 0.7730 0.7730 0.7730 0.7730
8.350836 0.7730 0.7710 0.7670 0.7610 0.7520
8.385000 0.7440 0.7320 0.7160 0.7010 0.6800
8.418836 0.6580 0.6330 0.6090 0.5850 0.5610
8.453000 0.5390 0.5150 0.4930 0.4690 0.4450
8.486836 0.4210 0.3950 0.3650 0.3370 0.3050
8.520000 0.2730 0.2380 0.1990 0.1580 0.1260
8.553836 0.0970 0.0730 0.0520 0.0370 0.0230
8.588000 0.0180 0.0150 0.0130 0.0110 0.0110
8.621836 0.0110 0.0110 0.0110 0.0170 0.0350
8.656000 0.0640 0.1050 0.1510 0.2010 0.2550
8.689836 0.3080 0.3580 0.4070 0.4480 0.4840
8.723000 0.5130 0.5400 0.5610 0.5800 0.5950
8.756836 0.6090 0.6210 0.6330 0.6450 0.6560
8.791000 0.6700 0.6840 0.7010 0.7210 0.7330
8.824836 0.7450 0.7550 0.7660 0.7740 0.7810
8.858000 0.7880 0.7910 0.7930 0.8000 0.8000
8.891836 0.8000 0.8000 0.8000 0.8000 0.8000
8.926000 0.8000 0.7930 0.7860 0.7780 0.7690
8.959836 0.7520 0.7400 0.7180 0.6870 0.6530
8.994000 0.6160 0.5750 0.5370 0.5000 0.4670
9.027836 0.4330 0.4120 0.4110 0.4110 0.4160
9.061000 0.4410 0.4650 0.4940 0.5230 0.5560
9.094836 0.5880 0.6190 0.6450 0.6680 0.6840
9.129000 0.7040 0.7160 0.7320 0.7470 0.7540
9.162836 0.7640 0.7710 0.7760 0.7790 0.7830
9.197000 0.7840 0.7860 0.7900 0.7910 0.7960
9.230836 0.8020 0.8080 0.8150 0.8240 0.8310
9.264000 0.8390 0.8460 0.8530 0.8540 0.8600
9.297836 0.8610 0.8630 0.8660 0.8680 0.8700
9.332000 0.8700 0.8700 0.8700 0.8730 0.8730
9.365836 0.8750 0.8750 0.8750 0.8750 0.8770
9.400000 0.8770 0.8770 0.8780 0.8780 0.8800
9.433836 0.8800 0.8780 0.8780 0.8780 0.8780
9.467000 0.8800 0.8800 0.8800 0.8800 0.8800
9.500836 0.8800 0.8800 0.8800 0.8780 0.8770
9.535000 0.8770 0.8750 0.8750 0.8750 0.8750
9.568836 0.8750 0.8750 0.8750 0.8750 0.8750
9.602000 0.8770 0.8780 0.8800 0.8800 0.8820
9.635836 0.8830 0.8830 0.8830 0.8830 0.8830
9.670000 0.8830 0.8820 0.8800 0.8780 0.8780
9.703836 0.8780 0.8780 0.8780 0.8800 0.8820
9.738000 0.8830 0.8850 0.8890 0.8900 0.8920
9.771836 0.8920 0.8920 0.8920 0.8940 0.8940
9.805000 0.8940 0.8940 0.8940 0.8920 0.8900
9.838836 0.8890 0.8850 0.8830 0.8780 0.8750
9.873000 0.8700 0.8650 0.8610 0.8540 0.8530
9.906836 0.8530 0.8510 0.8490 0.8490 0.8460
9.941000 0.8440 0.8430 0.8360 0.8290 0.8200
9.974836 0.8070 0.8020 0.7960 0.7860 0.7780
10.008000 0.7740 0.7710 0.7690 0.7640 0.7620
10.041836 0.7620 0.7620 0.7610 0.7610 0.7610
10.076000 0.7610 0.7590 0.7540 0.7490 0.7420
10.109836 0.7300 0.7180 0.7040 0.6940 0.6790
10.144000 0.6700 0.6630 0.6600 0.6580 0.6580
10.177836 0.6580 0.6620 0.6650 0.6700 0.6750
10.211000 0.6800 0.6840 0.6890 0.6960 0.7010
10.244836 0.7040 0.7060 0.7090 0.7110 0.7110
10.279000 0.7110 0.7110 0.7110 0.7110 0.7090
10.312836 0.7040 0.7010 0.6970 0.6910 0.6840
10.347000 0.6770 0.6720 0.6650 0.6580 0.6530
10.380836 0.6510 0.6450 0.6390 0.6340 0.6270
10.414000 0.6220 0.6160 0.6100 0.6040 0.5970
10.447836 0.5900 0.5830 0.5750 0.5660 0.5560
10.482000 0.5470 0.5350 0.5250 0.5100 0.4890
10.515836 0.4720 0.4550 0.4410 0.4260 0.4110
10.549000 0.3950 0.3750 0.3510 0.3320 0.3130
10.582836 0.2950 0.2780 0.2590 0.2420 0.2230
10.617000 0.2040 0.1840 0.1700 0.1560 0.1460
10.650836 0.1360 0.1260 0.1170 0.1070 0.0970
10.685000 0.0830 0.0730 0.0640 0.0610 0.0540
10.718836 0.0490 0.0440 0.0390 0.0320 0.0270
10.752000 0.0250 0.0220 0.0220 0.0180 0.0180
10.785836 0.0180 0.0180 0.0180 0.0180 0.0180
10.820000 0.0180 0.0180 0.0180 0.0180 0.0200
10.853836 0.0220 0.0250 0.0290 0.0340 0.0400
10.888000 0.0490 0.0630 0.0760 0.0950 0.1160
10.921836 0.1360 0.1560 0.1750 0.1960 0.2160
10.955000 0.2380 0.2590 0.2810 0.3030 0.3250
10.988836 0.3480 0.3720 0.3940 0.4160 0.4380
11.023000 0.4590 0.4720 0.4840 0.5000 0.5130
11.056836 0.5250 0.5370 0.5490 0.5610 0.5750
11.091000 0.5830 0.5920 0.6000 0.6020 0.6050
11.124836 0.6050 0.6070 0.6050 0.6050 0.5980
11.158000 0.5880 0.5800 0.5630 0.5370 0.5080
11.191836 0.4760 0.4380 0.4010 0.3610 0.3220
11.226000 0.2830 0.2470 0.2160 0.1860 0.1600
11.259836 0.1360 0.1210 0.1090 0.1020 0.1000
11.293000 0.1000 0.1020 0.1170 0.1360 0.1580
11.326836 0.1820 0.2080 0.2350 0.2640 0.2930
11.361000 0.3220 0.3510 0.3780 0.4040 0.4280
11.394836 0.4500 0.4690 0.4820 0.4980 0.5130
11.429000 0.5300 0.5460 0.5630 0.5800 0.5970
11.462836 0.6120 0.6270 0.6410 0.6530 0.6630
11.496000 0.6770 0.6890 0.6990 0.7110 0.7230
11.529836 0.7320 0.7420 0.7500 0.7570 0.7660
11.564000 0.7760 0.7810 0.7900 0.7960 0.8000
11.597836 0.8030 0.8120 0.8150 0.8200 0.8250
11.632000 0.8290 0.8320 0.8370 0.8390 0.8410
11.665836 0.8430 0.8440 0.8490 0.8490 0.8510
11.699000 0.8530 0.8540 0.8540 0.8540 0.8540
11.732836 0.8540 0.8560 0.8560 0.8560 0.8560
11.767000 0.8540 0.8540 0.8510 0.8480 0.8430
11.800836 0.8390 0.8340 0.8310 0.8250 0.8220
11.835000 0.8190 0.8150 0.8120 0.8100 0.8080
11.868836 0.8050 0.8030 0.8000 0.7980 0.7930
11.902000 0.7910 0.7880 0.7860 0.7860 0.7840
11.935836 0.7810 0.7790 0.7790 0.7760 0.7740
11.970000 0.7730 0.7730 0.7710 0.7710 0.7690
12.003836 0.7660 0.7590 0.7570 0.7550 0.7540
12.037000 0.7540 0.7520 0.7520 0.7500 0.7500
12.070836 0.7500 0.7520 0.7540 0.7570 0.7610
12.105000 0.7670 0.7730 0.7790 0.7860 0.7950
12.138836 0.8020 0.8080 0.8150 0.8220 0.8290
12.173000 0.8320 0.8360 0.8390 0.8410 0.8430
12.206836 0.8440 0.8480 0.8510 0.8540 0.8560
12.240000 0.8580 0.8580 0.8600 0.8600 0.8610
12.273836 0.8630 0.8630 0.8630 0.8630 0.8650
12.308000 0.8650 0.8650 0.8650 0.8650 0.8650
12.341836 0.8660 0.8660 0.8660 0.8680 0.8680
12.376000 0.8680 0.8700 0.8700 0.8700 0.8720
12.409836 0.8720 0.8730 0.8730 0.8730 0.8730
12.443000 0.8750 0.8750 0.8770 0.8770 0.8770
12.476836 0.8770 0.8780 0.8780 0.8780 0.8800
12.511000 0.8800 0.8800 0.8800 0.8800 0.8800
12.544836 0.8780 0.8770 0.8770 0.8750 0.8730
12.579000 0.8680 0.8660 0.8630 0.8560 0.8490
12.612836 0.8410 0.8340 0.8240 0.8150 0.8030
12.646000 0.7880 0.7790 0.7690 0.7540 0.7420
12.679836 0.7230 0.7040 0.6920 0.6750 0.6650
12.714000 0.6560 0.6500 0.6460 0.6450 0.6430
12.747836 0.6450 0.6460 0.6500 0.6550 0.6620
12.781000 0.6700 0.6800 0.6890 0.6990 0.7130
12.814836 0.7210 0.7300 0.7370 0.7440 0.7500
12.849000 0.7540 0.7590 0.7620 0.7660 0.7690
12.882836 0.7730 0.7740 0.7760 0.7780 0.7810
12.917000 0.7810 0.7830 0.7830 0.7830 0.7830
12.950836 0.7830 0.7830 0.7830 0.7830 0.7830
12.984000 0.7830 0.7830 0.7830 0.7830 0.7830
13.017836 0.7830 0.7830 0.7830 0.7830 0.7830
13.052000 0.7830 0.7830 0.7830 0.7830 0.7830
13.085836 0.7830 0.7830 0.7830 0.7830 0.7830
13.120000 0.7830 0.7830 0.7810 0.7810 0.7790
13.153836 0.7760 0.7710 0.7660 0.7620 0.7590
13.187000 0.7500 0.7420 0.7300 0.7200 0.7080
13.220836 0.6940 0.6800 0.6650 0.6500 0.6330
13.255000 0.6170 0.5980 0.5800 0.5610 0.5400
13.288836 0.5230 0.5050 0.4930 0.4770 0.4620
13.323000 0.4480 0.4380 0.4280 0.4210 0.4120
13.356836 0.4070 0.4020 0.3970 0.3940 0.3940
13.390000 0.3940 0.3940 0.3950 0.3990 0.4020
13.423836 0.4090 0.4180 0.4280 0.4380 0.4480
13.458000 0.4570 0.4690 0.4810 0.4960 0.5110
13.491836 0.5250 0.5370 0.5490 0.5610 0.5750
13.525000 0.5880 0.5980 0.6050 0.6140 0.6190
13.558836 0.6240 0.6290 0.6310 0.6310 0.6330
13.593000 0.6330 0.6330 0.6310 0.6270 0.6220
13.626836 0.6160 0.6070 0.5980 0.5930 0.5830
13.661000 0.5750 0.5640 0.5580 0.5520 0.5490
13.694836 0.5440 0.5420 0.5400 0.5400 0.5400
13.728000 0.5400 0.5400 0.5420 0.5490 0.5520
13.761836 0.5560 0.5630 0.5680 0.5750 0.5780
13.796000 0.5880 0.5950 0.6020 0.6100 0.6170
13.829836 0.6220 0.6290 0.6360 0.6430 0.6480
13.864000 0.6550 0.6620 0.6630 0.6700 0.6740
13.897836 0.6790 0.6800 0.6840 0.6870 0.6920
13.931000 0.6970 0.7010 0.7030 0.7060 0.7110
13.964836 0.7130 0.7150 0.7160 0.7180 0.7180
13.999000 0.7180 0.7200 0.7200 0.7200 0.7200
14.032836 0.7200 0.7200 0.7200 0.7200 0.7200
14.067000 0.7200 0.7200 0.7200 0.7180 0.7180
14.100836 0.7160 0.7160 0.7150 0.7130 0.7110
14.134000 0.7090 0.7080 0.7060 0.7030 0.7030
14.167836 0.7010 0.7010 0.7010 0.6990 0.6990
14.202000 0.6970 0.6970 0.6960 0.6960 0.6960
14.235836 0.6970 0.6970 0.6990 0.6990 0.6990
14.270000 0.7010 0.7010 0.7040 0.7060 0.7080
14.303836 0.7090 0.7130 0.7150 0.7180 0.7210
14.337000 0.7230 0.7250 0.7280 0.7300 0.7350
14.370836 0.7400 0.7440 0.7440 0.7450 0.7470
14.405000 0.7500 0.7500 0.7540 0.7550 0.7570
14.438836 0.7610 0.7610 0.7620 0.7620 0.7640
14.472000 0.7660 0.7660 0.7660 0.7670 0.7670
14.505836 0.7670 0.7690 0.7690 0.7690 0.7690
14.540000 0.7690 0.7690 0.7690 0.7690 0.7690
14.573836 0.7690 0.7690 0.7690 0.7690 0.7690
14.608000 0.7690 0.7690 0.7690 0.7670 0.7670
14.641836 0.7660 0.7660 0.7640 0.7640 0.7620
14.675000 0.7620 0.7610 0.7610 0.7590 0.7590
14.708836 0.7570 0.7570 0.7550 0.7550 0.7540
14.743000 0.7540 0.7520 0.7520 0.7500 0.7500
14.776836 0.7490 0.7470 0.7470 0.7450 0.7440
14.811000 0.7420 0.7400 0.7370 0.7350 0.7330
14.844836 0.7320 0.7300 0.7250 0.7210 0.7180
14.878000 0.7160 0.7130 0.7080 0.7060 0.7030
14.911836 0.6970 0.6910 0.6860 0.6800 0.6750
14.946000 0.6720 0.6670 0.6620 0.6560 0.6480
14.979836 0.6430 0.6410 0.6380 0.6340 0.6190
15.014000 0.6050 0.5920 0.5760 0.5630 0.5470
15.047836 0.5300 0.5110 0.4910 0.4670 0.4400
15.081000 0.4070 0.3900 0.3720 0.3510 0.3320
15.114836 0.3130 0.2950 0.2780 0.2590 0.2420
15.149000 0.2250 0.2060 0.1920 0.1840 0.1820
15.182836 0.1510 0.1450 0.1360 0.1260 0.1220
15.216000 0.1160 0.1070 0.1000 0.0920 0.0880
15.249836 0.0880 0.0850 0.0850 0.0850 0.0850
15.284000 0.0870 0.0870 0.0880 0.0920 0.0970
15.317836 0.1070 0.1190 0.1330 0.1460 0.1630
15.352000 0.1800 0.1960 0.2030 0.2200 0.2550
15.385836 0.2830 0.3050 0.3340 0.3560
##END=
