##TITLE=2-THIAZOLIDINE THIONE
$$ E.K. NO. 5444
##JCAMP-DX=4.24
##DATA TYPE=INFRARED SPECTRUM
##CLASS=COBLENTZ
##ORIGIN=TENNESSEE EASTMAN COMPANY, RESEARCH LABORATORIES
##OWNER=COBLENTZ SOCIETY
Collection (C) 2018 copyright by the U.S. Secretary of Commerce
on behalf of the United States of America. All rights reserved.
##DATE=Not specified, most likely prior to 1970
##NAMES=1,3-thiazolidine-2-thione
##CAS REGISTRY NO=96-53-7
##MOLFORM=C3 H5 N S2
##MP=104-105 C
##SOURCE REFERENCE=COBLENTZ NO. 1657
##$NIST SOURCE=COBLENTZ
##$NIST IMAGE=cob1657
##SPECTROMETER/DATA SYSTEM=Not specified, most likely a prism, grating, or hybrid spectrometer.
##STATE=SOLID (KBr PELLET)
##SAMPLING PROCEDURE=TRANSMISSION
##RESOLUTION=4
##DATA PROCESSING=DIGITIZED BY NIST FROM HARD COPY
##XUNITS=MICROMETERS
##YUNITS=TRANSMITTANCE
##XFACTOR=1.000000
##YFACTOR=1
##DELTAX=000.006829
##FIRSTX=2.014
##LASTX=15.986
##FIRSTY=0.496
##MAXX=15.986
##MINX=2.014
##MAXY=0.981
##MINY=0.027
##NPOINTS=2047
##XYDATA=(X++(Y..Y))
2.014000 0.4960 0.5000 0.5030 0.5050 0.5080
2.048163 0.5080 0.5100 0.5150 0.5170 0.5180
2.082000 0.5220 0.5290 0.5340 0.5370 0.5420
2.116163 0.5470 0.5470 0.5490 0.5510 0.5510
2.150000 0.5520 0.5540 0.5560 0.5580 0.5580
2.184163 0.5590 0.5630 0.5640 0.5660 0.5690
2.219000 0.5710 0.5730 0.5750 0.5760 0.5760
2.253163 0.5760 0.5780 0.5780 0.5830 0.5850
2.287000 0.5920 0.5980 0.5980 0.6000 0.6000
2.321163 0.6020 0.6040 0.6050 0.6070 0.6090
2.355000 0.6170 0.6190 0.6210 0.6220 0.6220
2.389163 0.6260 0.6260 0.6270 0.6310 0.6330
2.423000 0.6360 0.6380 0.6380 0.6390 0.6410
2.457163 0.6410 0.6430 0.6480 0.6480 0.6500
2.492000 0.6510 0.6530 0.6550 0.6580 0.6620
2.526163 0.6650 0.6680 0.6700 0.6700 0.6720
2.560000 0.6720 0.6720 0.6720 0.6720 0.6720
2.594163 0.6720 0.6720 0.6740 0.6750 0.6790
2.628000 0.6800 0.6910 0.6940 0.6970 0.7010
2.662163 0.7010 0.7040 0.7080 0.7090 0.7110
2.697000 0.7130 0.7130 0.7130 0.7130 0.7130
2.731163 0.7130 0.7110 0.7090 0.7060 0.7040
2.765000 0.7010 0.6920 0.6910 0.6890 0.6890
2.799163 0.6860 0.6840 0.6820 0.6800 0.6770
2.833000 0.6740 0.6700 0.6630 0.6600 0.6600
2.867163 0.6600 0.6580 0.6580 0.6560 0.6560
2.901000 0.6550 0.6530 0.6530 0.6530 0.6530
2.935163 0.6530 0.6560 0.6620 0.6620 0.6630
2.970000 0.6700 0.6720 0.6740 0.6740 0.6740
3.004163 0.6720 0.6650 0.6580 0.6500 0.6390
3.038000 0.6260 0.6090 0.5870 0.5710 0.5440
3.072163 0.5050 0.4430 0.4110 0.3870 0.3600
3.106000 0.3540 0.3250 0.3000 0.2670 0.2400
3.140163 0.2160 0.1650 0.1510 0.1210 0.0830
3.175000 0.0630 0.0390 0.0300 0.0300 0.0320
3.209163 0.0350 0.0510 0.0800 0.1020 0.1210
3.243000 0.1600 0.2150 0.2300 0.2710 0.3220
3.277163 0.3310 0.3820 0.4160 0.4160 0.4090
3.311000 0.3950 0.3610 0.2260 0.2250 0.2280
3.345163 0.3240 0.3700 0.3800 0.3820 0.3830
3.380000 0.3870 0.3890 0.3920 0.3940 0.3970
3.414163 0.4590 0.5180 0.5270 0.5270 0.5200
3.448000 0.5060 0.4790 0.4600 0.4480 0.4360
3.482163 0.4310 0.4310 0.4880 0.5000 0.5510
3.516000 0.6020 0.6210 0.6550 0.6770 0.6840
3.550163 0.6910 0.6990 0.7040 0.7200 0.7350
3.584000 0.7450 0.7490 0.7540 0.7570 0.7590
3.618163 0.7590 0.7610 0.7610 0.7620 0.7610
3.653000 0.7590 0.7570 0.7520 0.7490 0.7490
3.687163 0.7470 0.7490 0.7590 0.7740 0.7910
3.721000 0.8000 0.8070 0.8150 0.8220 0.8250
3.755163 0.8310 0.8370 0.8390 0.8430 0.8460
3.789000 0.8490 0.8490 0.8530 0.8540 0.8560
3.823163 0.8580 0.8600 0.8630 0.8630 0.8650
3.858000 0.8660 0.8680 0.8700 0.8720 0.8730
3.892163 0.8750 0.8770 0.8770 0.8770 0.8750
3.926000 0.8720 0.8680 0.8660 0.8660 0.8700
3.960163 0.8730 0.8770 0.8800 0.8830 0.8870
3.994000 0.8900 0.8940 0.8970 0.8990 0.9010
4.028163 0.9010 0.9020 0.9090 0.9110 0.9120
4.062000 0.9160 0.9180 0.9180 0.9180 0.9180
4.096163 0.9160 0.9110 0.9090 0.9060 0.9060
4.131000 0.9060 0.9060 0.9060 0.9090 0.9160
4.165163 0.9180 0.9190 0.9230 0.9260 0.9300
4.199000 0.9300 0.9300 0.9300 0.9300 0.9300
4.233163 0.9230 0.9190 0.9180 0.9160 0.9160
4.267000 0.9140 0.9140 0.9140 0.9140 0.9140
4.301163 0.9140 0.9140 0.9140 0.9180 0.9240
4.336000 0.9260 0.9280 0.9300 0.9330 0.9350
4.370163 0.9380 0.9400 0.9400 0.9410 0.9450
4.404000 0.9480 0.9480 0.9520 0.9520 0.9520
4.438163 0.9520 0.9520 0.9520 0.9520 0.9530
4.472000 0.9530 0.9530 0.9550 0.9550 0.9550
4.506163 0.9550 0.9550 0.9550 0.9550 0.9550
4.540000 0.9550 0.9550 0.9550 0.9550 0.9570
4.574163 0.9570 0.9570 0.9570 0.9570 0.9570
4.609000 0.9570 0.9570 0.9570 0.9570 0.9570
4.643163 0.9570 0.9570 0.9570 0.9570 0.9550
4.677000 0.9550 0.9550 0.9550 0.9530 0.9530
4.711163 0.9530 0.9530 0.9520 0.9520 0.9520
4.745000 0.9500 0.9500 0.9500 0.9500 0.9500
4.779163 0.9480 0.9480 0.9480 0.9480 0.9480
4.814000 0.9500 0.9520 0.9520 0.9520 0.9520
4.848163 0.9530 0.9530 0.9530 0.9530 0.9530
4.882000 0.9530 0.9530 0.9570 0.9570 0.9590
4.916163 0.9590 0.9620 0.9640 0.9650 0.9670
4.950000 0.9670 0.9690 0.9700 0.9700 0.9720
4.984163 0.9720 0.9740 0.9760 0.9770 0.9790
5.019000 0.9790 0.9790 0.9790 0.9770 0.9770
5.053163 0.9740 0.9740 0.9740 0.9720 0.9720
5.087000 0.9720 0.9720 0.9740 0.9720 0.9720
5.121163 0.9720 0.9720 0.9720 0.9720 0.9740
5.155000 0.9740 0.9740 0.9760 0.9770 0.9790
5.189163 0.9790 0.9790 0.9810 0.9810 0.9790
5.223000 0.9790 0.9790 0.9790 0.9790 0.9790
5.257163 0.9770 0.9760 0.9740 0.9720 0.9720
5.292000 0.9720 0.9720 0.9720 0.9720 0.9720
5.326163 0.9720 0.9720 0.9720 0.9720 0.9720
5.360000 0.9720 0.9720 0.9740 0.9740 0.9770
5.394163 0.9770 0.9770 0.9770 0.9770 0.9790
5.428000 0.9790 0.9790 0.9790 0.9810 0.9810
5.462163 0.9790 0.9790 0.9810 0.9810 0.9810
5.497000 0.9810 0.9810 0.9790 0.9770 0.9770
5.531163 0.9770 0.9760 0.9760 0.9760 0.9740
5.565000 0.9720 0.9700 0.9700 0.9690 0.9670
5.599163 0.9690 0.9690 0.9720 0.9720 0.9700
5.633000 0.9700 0.9690 0.9690 0.9690 0.9690
5.667163 0.9690 0.9690 0.9670 0.9650 0.9640
5.701000 0.9520 0.9430 0.9350 0.9300 0.9230
5.735163 0.9210 0.9190 0.9120 0.9090 0.9090
5.770000 0.9060 0.9060 0.9060 0.9090 0.9140
5.804163 0.9190 0.9190 0.9190 0.9210 0.9230
5.838000 0.9230 0.9260 0.9260 0.9260 0.9260
5.872163 0.9230 0.9190 0.9180 0.9160 0.9160
5.906000 0.9160 0.9160 0.9190 0.9190 0.9190
5.940163 0.9120 0.9090 0.9040 0.9010 0.8990
5.975000 0.8970 0.8950 0.8940 0.8870 0.8830
6.009163 0.8800 0.8780 0.8780 0.8780 0.8730
6.043000 0.8660 0.8600 0.8510 0.8410 0.8390
6.077163 0.8410 0.8490 0.8540 0.8540 0.8540
6.111000 0.8530 0.8510 0.8480 0.8430 0.8430
6.145163 0.8430 0.8440 0.8480 0.8510 0.8510
6.180000 0.8530 0.8540 0.8600 0.8630 0.8680
6.214163 0.8730 0.8800 0.8850 0.8850 0.8850
6.248000 0.8850 0.8850 0.8850 0.8850 0.8830
6.282163 0.8820 0.8770 0.8730 0.8720 0.8700
6.316000 0.8650 0.8600 0.8530 0.8490 0.8460
6.350163 0.8430 0.8390 0.8340 0.8290 0.8240
6.384000 0.8220 0.8120 0.8030 0.7960 0.7790
6.418163 0.7760 0.7710 0.7620 0.7550 0.7450
6.453000 0.7320 0.7110 0.6820 0.6670 0.6450
6.487163 0.6090 0.5590 0.5200 0.3750 0.3130
6.521000 0.2420 0.2010 0.1620 0.1500 0.0580
6.555163 0.0320 0.0270 0.0270 0.0290 0.0340
6.589000 0.0420 0.0610 0.0680 0.1580 0.2110
6.623163 0.3320 0.4410 0.4530 0.4810 0.5060
6.658000 0.5520 0.5580 0.5970 0.6380 0.6550
6.692163 0.6740 0.6890 0.7090 0.7320 0.7470
6.726000 0.7500 0.7520 0.7550 0.7570 0.7590
6.760163 0.7590 0.7590 0.7570 0.7540 0.7490
6.794000 0.7450 0.7380 0.7330 0.7210 0.7110
6.828163 0.6990 0.6680 0.6450 0.5510 0.5350
6.862000 0.5170 0.5130 0.5170 0.5630 0.5850
6.896163 0.6090 0.6560 0.6680 0.6680 0.6680
6.931000 0.6550 0.5920 0.5490 0.5470 0.5510
6.965163 0.5880 0.6240 0.6600 0.6970 0.7260
6.999000 0.7350 0.7440 0.7520 0.7610 0.7690
7.033163 0.7710 0.7740 0.7810 0.7880 0.7880
7.067000 0.7880 0.7880 0.7880 0.7880 0.7880
7.101163 0.7880 0.7810 0.7810 0.7810 0.7810
7.136000 0.7810 0.7830 0.7830 0.7860 0.7880
7.170163 0.7880 0.7880 0.7880 0.7880 0.7900
7.204000 0.7930 0.7960 0.7980 0.7980 0.8000
7.238163 0.8020 0.8030 0.8050 0.8080 0.8130
7.272000 0.8170 0.8190 0.8190 0.8190 0.8190
7.306163 0.8190 0.8190 0.8190 0.8190 0.8170
7.340000 0.8170 0.8190 0.8190 0.8200 0.8200
7.374163 0.8200 0.8200 0.8200 0.8150 0.7860
7.409000 0.7740 0.7670 0.7610 0.7540 0.7520
7.443163 0.7520 0.7520 0.7500 0.7500 0.7500
7.477000 0.7500 0.7500 0.7470 0.7450 0.7380
7.511163 0.7350 0.7110 0.7060 0.6870 0.6840
7.545000 0.6790 0.6720 0.6580 0.6380 0.6120
7.579163 0.5970 0.5870 0.5610 0.5560 0.5180
7.614000 0.4300 0.3900 0.3680 0.3250 0.2490
7.648163 0.2090 0.2010 0.1790 0.1210 0.0980
7.682000 0.0750 0.0560 0.0420 0.0400 0.0400
7.716163 0.0420 0.0520 0.0660 0.0880 0.1160
7.750000 0.1530 0.1920 0.2010 0.2860 0.2900
7.784163 0.3320 0.3890 0.4280 0.4590 0.4880
7.819000 0.4910 0.5050 0.5170 0.5390 0.5580
7.853163 0.5760 0.5930 0.6020 0.6100 0.6190
7.887000 0.6240 0.6290 0.6290 0.6240 0.6190
7.921163 0.6120 0.6050 0.6020 0.5660 0.5510
7.955000 0.5100 0.4700 0.4620 0.4600 0.4480
7.989163 0.4470 0.4500 0.4810 0.5000 0.5180
8.023000 0.5520 0.5750 0.5900 0.6050 0.6430
8.057163 0.6670 0.6750 0.6870 0.6870 0.7130
8.092000 0.7180 0.7210 0.7260 0.7300 0.7330
8.126163 0.7370 0.7400 0.7440 0.7470 0.7490
8.160000 0.7490 0.7490 0.7490 0.7470 0.7450
8.194163 0.7440 0.7300 0.7250 0.7130 0.7060
8.228000 0.6940 0.6820 0.6680 0.6600 0.6500
8.262163 0.6330 0.6160 0.6070 0.6070 0.6090
8.297000 0.6220 0.6340 0.6480 0.6620 0.6750
8.331163 0.7040 0.7280 0.7400 0.7440 0.7470
8.365000 0.7740 0.7780 0.7900 0.7960 0.8070
8.399163 0.8130 0.8200 0.8270 0.8290 0.8310
8.433000 0.8340 0.8360 0.8370 0.8390 0.8390
8.467163 0.8430 0.8440 0.8440 0.8440 0.8440
8.501000 0.8440 0.8430 0.8410 0.8390 0.8310
8.535163 0.8250 0.8240 0.8190 0.7950 0.7780
8.570000 0.7660 0.7620 0.7640 0.7710 0.7760
8.604163 0.8050 0.8130 0.8170 0.8220 0.8310
8.638000 0.8390 0.8460 0.8510 0.8530 0.8540
8.672163 0.8580 0.8580 0.8600 0.8610 0.8610
8.706000 0.8610 0.8630 0.8630 0.8630 0.8630
8.740163 0.8630 0.8650 0.8650 0.8650 0.8650
8.775000 0.8650 0.8650 0.8630 0.8630 0.8630
8.809163 0.8610 0.8610 0.8610 0.8610 0.8610
8.843000 0.8610 0.8600 0.8600 0.8600 0.8600
8.877163 0.8600 0.8600 0.8580 0.8580 0.8580
8.911000 0.8580 0.8580 0.8560 0.8560 0.8560
8.945163 0.8560 0.8540 0.8540 0.8530 0.8530
8.980000 0.8510 0.8510 0.8510 0.8510 0.8490
9.014163 0.8490 0.8490 0.8510 0.8510 0.8510
9.048000 0.8510 0.8490 0.8480 0.8480 0.8410
9.082163 0.8360 0.8190 0.8150 0.8120 0.7830
9.116000 0.7500 0.7380 0.7130 0.6840 0.6720
9.150163 0.6310 0.6090 0.6040 0.6040 0.6220
9.184000 0.6510 0.6580 0.6860 0.7090 0.7330
9.218163 0.7590 0.7640 0.7710 0.7780 0.7780
9.253000 0.7780 0.7780 0.7710 0.7660 0.7610
9.287163 0.7570 0.7380 0.7380 0.7230 0.7040
9.321000 0.6940 0.6750 0.6530 0.6310 0.6140
9.355163 0.6020 0.5730 0.5320 0.5290 0.4480
9.389000 0.4230 0.3720 0.3120 0.2180 0.1960
9.423163 0.1390 0.1220 0.0980 0.0610 0.0490
9.458000 0.0390 0.0300 0.0270 0.0270 0.0270
9.492163 0.0270 0.0290 0.0300 0.0300 0.0390
9.526000 0.0470 0.0640 0.0830 0.1040 0.1160
9.560163 0.1340 0.1510 0.1600 0.1620 0.1680
9.594000 0.1680 0.1720 0.1870 0.2080 0.2280
9.628163 0.2690 0.2740 0.3070 0.3310 0.3830
9.662000 0.3970 0.4310 0.4450 0.4600 0.4740
9.696163 0.4860 0.4930 0.5010 0.5080 0.5180
9.731000 0.5180 0.5200 0.5220 0.5220 0.5290
9.765163 0.5290 0.5290 0.5230 0.5220 0.5200
9.799000 0.5170 0.5130 0.5110 0.5100 0.5100
9.833163 0.5100 0.5100 0.5100 0.5100 0.5100
9.867000 0.5060 0.4810 0.4790 0.4700 0.4470
9.901163 0.4280 0.3920 0.3600 0.3080 0.2980
9.936000 0.2640 0.2280 0.2030 0.1870 0.1720
9.970163 0.1700 0.1680 0.1700 0.1860 0.2090
10.004000 0.2350 0.2790 0.3270 0.3680 0.3820
10.038163 0.3800 0.4190 0.4700 0.5220 0.5580
10.072000 0.5880 0.6170 0.6410 0.6650 0.6860
10.106163 0.7030 0.7060 0.7330 0.7440 0.7550
10.140000 0.7660 0.7740 0.7760 0.7810 0.7980
10.174163 0.8050 0.8080 0.8170 0.8190 0.8200
10.209000 0.8220 0.8270 0.8360 0.8370 0.8390
10.243163 0.8410 0.8430 0.8430 0.8460 0.8600
10.277000 0.8610 0.8650 0.8660 0.8680 0.8700
10.311163 0.8730 0.8780 0.8820 0.8830 0.8850
10.345000 0.8890 0.8900 0.8920 0.8940 0.8970
10.379163 0.8990 0.9010 0.9010 0.9020 0.9040
10.414000 0.9060 0.9070 0.9090 0.9090 0.9090
10.448163 0.9110 0.9110 0.9110 0.9110 0.9110
10.482000 0.9110 0.9110 0.9110 0.9110 0.9110
10.516163 0.9110 0.9110 0.9110 0.9110 0.9110
10.550000 0.9110 0.9090 0.9090 0.9070 0.9010
10.584163 0.8970 0.8850 0.8830 0.8660 0.8480
10.619000 0.8360 0.8190 0.8080 0.7760 0.7490
10.653163 0.7180 0.6790 0.5200 0.5010 0.4190
10.687000 0.3410 0.2930 0.2400 0.2210 0.2210
10.721163 0.2280 0.2590 0.2950 0.3150 0.4040
10.755000 0.4180 0.4670 0.5170 0.5610 0.5760
10.789163 0.6270 0.6330 0.7230 0.7670 0.7840
10.823000 0.7900 0.8000 0.8310 0.8360 0.8390
10.857163 0.8460 0.8600 0.8700 0.8780 0.8850
10.892000 0.8870 0.9010 0.9060 0.9090 0.9120
10.926163 0.9140 0.9190 0.9230 0.9240 0.9260
10.960000 0.9280 0.9300 0.9310 0.9330 0.9360
10.994163 0.9380 0.9400 0.9400 0.9410 0.9430
11.028000 0.9430 0.9450 0.9450 0.9470 0.9470
11.062163 0.9470 0.9470 0.9480 0.9480 0.9500
11.097000 0.9500 0.9500 0.9500 0.9500 0.9500
11.131163 0.9500 0.9500 0.9500 0.9520 0.9520
11.165000 0.9520 0.9520 0.9530 0.9530 0.9530
11.199163 0.9550 0.9550 0.9550 0.9570 0.9570
11.233000 0.9590 0.9590 0.9590 0.9590 0.9590
11.267163 0.9590 0.9600 0.9600 0.9600 0.9600
11.301000 0.9600 0.9600 0.9600 0.9600 0.9600
11.335163 0.9600 0.9590 0.9590 0.9590 0.9590
11.370000 0.9590 0.9590 0.9590 0.9590 0.9590
11.404163 0.9570 0.9570 0.9570 0.9570 0.9570
11.438000 0.9570 0.9550 0.9530 0.9520 0.9500
11.472163 0.9480 0.9470 0.9410 0.9380 0.9310
11.506000 0.9300 0.9180 0.9140 0.9140 0.9120
11.540163 0.9110 0.9110 0.9110 0.9090 0.9070
11.575000 0.9070 0.9060 0.9010 0.8990 0.8950
11.609163 0.8900 0.8870 0.8780 0.8730 0.8680
11.643000 0.8660 0.8600 0.8530 0.8480 0.8460
11.677163 0.8430 0.8390 0.8390 0.8390 0.8390
11.711000 0.8390 0.8390 0.8390 0.8390 0.8410
11.745163 0.8410 0.8430 0.8430 0.8440 0.8460
11.780000 0.8490 0.8510 0.8540 0.8540 0.8610
11.814163 0.8720 0.8750 0.8770 0.8820 0.8870
11.848000 0.8890 0.8940 0.9010 0.9040 0.9090
11.882163 0.9140 0.9190 0.9230 0.9240 0.9240
11.916000 0.9260 0.9280 0.9300 0.9310 0.9330
11.950163 0.9350 0.9350 0.9380 0.9380 0.9400
11.984000 0.9410 0.9410 0.9430 0.9450 0.9470
12.018163 0.9480 0.9500 0.9500 0.9520 0.9530
12.053000 0.9530 0.9550 0.9570 0.9570 0.9570
12.087163 0.9570 0.9590 0.9590 0.9590 0.9590
12.121000 0.9600 0.9600 0.9600 0.9620 0.9620
12.155163 0.9620 0.9620 0.9640 0.9640 0.9640
12.189000 0.9640 0.9640 0.9640 0.9640 0.9640
12.223163 0.9640 0.9640 0.9640 0.9640 0.9640
12.258000 0.9640 0.9640 0.9640 0.9640 0.9640
12.292163 0.9640 0.9640 0.9620 0.9620 0.9620
12.326000 0.9620 0.9620 0.9620 0.9620 0.9640
12.360163 0.9640 0.9640 0.9640 0.9640 0.9640
12.394000 0.9640 0.9640 0.9640 0.9640 0.9640
12.428163 0.9640 0.9640 0.9640 0.9640 0.9640
12.462000 0.9640 0.9640 0.9620 0.9620 0.9620
12.496163 0.9620 0.9600 0.9590 0.9590 0.9590
12.531000 0.9590 0.9570 0.9570 0.9570 0.9570
12.565163 0.9550 0.9550 0.9550 0.9550 0.9550
12.599000 0.9530 0.9530 0.9530 0.9530 0.9530
12.633163 0.9530 0.9530 0.9520 0.9530 0.9520
12.667000 0.9500 0.9500 0.9500 0.9500 0.9500
12.701163 0.9500 0.9480 0.9480 0.9480 0.9470
12.736000 0.9470 0.9470 0.9470 0.9450 0.9450
12.770163 0.9450 0.9450 0.9430 0.9430 0.9430
12.804000 0.9410 0.9410 0.9410 0.9400 0.9400
12.838163 0.9400 0.9380 0.9380 0.9360 0.9360
12.872000 0.9350 0.9350 0.9330 0.9330 0.9310
12.906163 0.9310 0.9300 0.9300 0.9280 0.9280
12.940000 0.9260 0.9260 0.9240 0.9240 0.9240
12.974163 0.9230 0.9230 0.9230 0.9210 0.9210
13.009000 0.9190 0.9190 0.9190 0.9180 0.9180
13.043163 0.9160 0.9160 0.9160 0.9140 0.9120
13.077000 0.9120 0.9110 0.9110 0.9090 0.9090
13.111163 0.9070 0.9070 0.9060 0.9040 0.9020
13.145000 0.9020 0.9010 0.8990 0.8950 0.8950
13.179163 0.8920 0.8890 0.8820 0.8800 0.8800
13.214000 0.8770 0.8730 0.8720 0.8700 0.8660
13.248163 0.8630 0.8610 0.8600 0.8580 0.8560
13.282000 0.8540 0.8530 0.8510 0.8490 0.8480
13.316163 0.8460 0.8440 0.8430 0.8410 0.8390
13.350000 0.8370 0.8360 0.8340 0.8320 0.8290
13.384163 0.8290 0.8270 0.8250 0.8200 0.8190
13.419000 0.8150 0.8130 0.8120 0.8080 0.8070
13.453163 0.8030 0.8020 0.8020 0.8000 0.7980
13.487000 0.7960 0.7950 0.7910 0.7840 0.7810
13.521163 0.7780 0.7740 0.7710 0.7670 0.7640
13.555000 0.7610 0.7570 0.7540 0.7540 0.7470
13.589163 0.7440 0.7400 0.7370 0.7330 0.7300
13.623000 0.7260 0.7250 0.7200 0.7200 0.7110
13.657163 0.7010 0.6990 0.6920 0.6840 0.6820
13.692000 0.6770 0.6740 0.6680 0.6670 0.6580
13.726163 0.6560 0.6510 0.6480 0.6410 0.6390
13.760000 0.6340 0.6290 0.6270 0.6220 0.6210
13.794163 0.6190 0.6050 0.5980 0.5930 0.5900
13.828000 0.5850 0.5800 0.5750 0.5710 0.5660
13.862163 0.5610 0.5540 0.5490 0.5460 0.5390
13.897000 0.5320 0.5270 0.5180 0.5110 0.5050
13.931163 0.4940 0.4880 0.4810 0.4790 0.4720
13.965000 0.4670 0.4620 0.4590 0.4520 0.4500
13.999163 0.4470 0.4430 0.4410 0.4380 0.4350
14.033000 0.4330 0.4310 0.4300 0.4300 0.4280
14.067163 0.4280 0.4260 0.4260 0.4240 0.4230
14.101000 0.4210 0.4190 0.4180 0.4160 0.4140
14.135163 0.4120 0.4120 0.4110 0.4110 0.4110
14.170000 0.4110 0.4090 0.4090 0.4090 0.4090
14.204163 0.4090 0.4090 0.4090 0.4110 0.4120
14.238000 0.4140 0.4160 0.4180 0.4180 0.4180
14.272163 0.4180 0.4190 0.4190 0.4190 0.4210
14.306000 0.4240 0.4280 0.4300 0.4310 0.4330
14.340163 0.4330 0.4380 0.4480 0.4480 0.4520
14.375000 0.4570 0.4600 0.4650 0.4670 0.4700
14.409163 0.4810 0.4860 0.4880 0.4910 0.4980
14.443000 0.5030 0.5060 0.5080 0.5130 0.5180
14.477163 0.5200 0.5290 0.5290 0.5320 0.5370
14.511000 0.5440 0.5520 0.5580 0.5590 0.5690
14.545163 0.5750 0.5800 0.5850 0.5900 0.5930
14.580000 0.5950 0.6000 0.6020 0.6070 0.6120
14.614163 0.6170 0.6220 0.6240 0.6290 0.6360
14.648000 0.6390 0.6430 0.6450 0.6480 0.6510
14.682163 0.6550 0.6580 0.6620 0.6650 0.6670
14.716000 0.6680 0.6700 0.6720 0.6740 0.6770
14.750163 0.6790 0.6820 0.6840 0.6860 0.6870
14.784000 0.6890 0.6910 0.6920 0.6940 0.6960
14.818163 0.6990 0.7010 0.7030 0.7040 0.7040
14.853000 0.7060 0.7080 0.7080 0.7090 0.7090
14.887163 0.7090 0.7090 0.7090 0.7090 0.7090
14.921000 0.7060 0.7060 0.7030 0.7010 0.6990
14.955163 0.6970 0.6970 0.6970 0.6970 0.6970
14.989000 0.6960 0.6960 0.6960 0.6940 0.6920
15.023163 0.6920 0.6910 0.6890 0.6890 0.6870
15.058000 0.6860 0.6840 0.6790 0.6740 0.6680
15.092163 0.6670 0.6620 0.6500 0.6410 0.6380
15.126000 0.6170 0.6140 0.6090 0.5830 0.5780
15.160163 0.5640 0.5460 0.5340 0.5170 0.5050
15.194000 0.4690 0.4480 0.4120 0.4070 0.3970
15.228163 0.3940 0.3770 0.3700 0.3600 0.3530
15.262000 0.3480 0.3430 0.3410 0.3410 0.3410
15.296163 0.3410 0.3410 0.3430 0.3480 0.3540
15.331000 0.3630 0.3750 0.3830 0.3920 0.4040
15.365163 0.4190 0.4240 0.4400 0.4470 0.4480
15.399000 0.4700 0.4810 0.4910 0.4940 0.4960
15.433163 0.5000 0.5050 0.5100 0.5180 0.5220
15.467000 0.5270 0.5300 0.5350 0.5390 0.5440
15.501163 0.5460 0.5580 0.5580 0.5610 0.5630
15.536000 0.5640 0.5660 0.5690 0.5730 0.5750
15.570163 0.5760 0.5760 0.5780 0.5800 0.5830
15.604000 0.5870 0.5880 0.5880 0.5880 0.5900
15.638163 0.5900 0.5900 0.5900 0.5900 0.5900
15.672000 0.5900 0.5920 0.5930 0.5930 0.5950
15.706163 0.5970 0.5970 0.5980 0.5980 0.5980
15.740000 0.5980 0.5980 0.5980 0.5980 0.5980
15.774163 0.5980 0.5980 0.5980 0.5980 0.5980
15.809000 0.5980 0.5980 0.5980 0.5980 0.5980
15.843163 0.5980 0.5980 0.5980 0.5980 0.5980
15.877000 0.5980 0.5980 0.5980 0.5980 0.5980
15.911163 0.5970 0.5970 0.5950 0.5920 0.5900
15.945000 0.5880 0.5880 0.5880 0.5900 0.5880
15.979163 0.5880 0.5880
##END=
